Angle,AA_3-12-2_Zn-DMF
2.0001000,.0000000
2.0205170,-.0001779
2.0409340,.0023929
2.0613520,.0074212
2.0817690,.0041067
2.1021860,-.0001132
2.1226030,.0006144
2.1430200,-.0004365
2.1634370,-.0054648
2.1838550,.0009054
2.2042720,.0027324
2.2246890,.0047373
2.2451060,.0050445
2.2655230,.0045271
2.2859410,-.0034276
2.3063580,-.0024576
2.3267750,-.0047211
2.3471920,-.0050768
2.3676090,-.0045594
2.3880260,-.0003816
2.4084440,-.0024058
2.4288610,-.0043589
2.4492780,-.0070170
2.4696950,-.0097009
2.4901120,-.0100889
2.5105300,-.0107680
2.5309470,-.0111560
2.5513640,-.0076314
2.5717810,-.0049475
2.5921980,-.0031043
2.6126160,.0010348
2.6330330,.0016815
2.6534500,-.0005174
2.6738670,-.0020372
2.6942840,-.0011318
2.7147010,-.0026516
2.7351190,-.0008407
2.7555360,.0006791
2.7759530,.0021989
2.7963700,.0006985
2.8167870,.0012870
2.8372040,.0013129
2.8576220,.0015521
2.8780390,.0015521
2.8984560,.0021989
2.9188730,.0012288
2.9392900,.0012935
2.9597070,-.0002587
2.9801250,.0000000
3.0005420,.0000970
3.0209590,.0003557
3.0413760,.0002264
3.0617940,.0022312
3.0822110,.0011964
3.1026280,-.0005497
3.1230450,-.0016492
3.1434620,-.0014875
3.1638790,-.0010994
3.1842970,-.0003234
3.2047140,.0014454
3.2251310,.0031399
3.2455480,.0037898
3.2659650,.0017785
3.2863820,.0022797
3.3068000,.0021342
3.3272170,.0023120
3.3476340,.0038480
3.3680510,.0032498
3.3884690,.0027486
3.4088850,.0022215
3.4293030,.0014745
3.4497200,-.0012061
3.4701370,-.0001293
3.4905540,-.0013743
3.5109720,-.0018108
3.5313890,-.0019240
3.5518060,-.0010994
3.5722230,-.0011803
3.5926400,.0007761
3.6130570,.0013420
3.6334750,.0001940
3.6538920,.0000808
3.6743090,.0001940
3.6947260,-.0001455
3.7151430,-.0005174
3.7355600,.0012126
3.7559780,.0011318
3.7763950,.0007599
3.7968120,.0004850
3.8172290,-.0005335
3.8376460,-.0006467
3.8580640,.0008569
3.8784810,.0028779
3.8988980,.0025707
3.9193150,.0045918
3.9397320,.0046079
3.9601500,.0040420
3.9805670,.0024737
4.0009840,.0039127
4.0214010,.0037348
4.0418180,.0033306
4.0622350,.0026354
4.0826530,.0027486
4.1030700,.0022797
4.1234870,.0031690
4.1439040,.0049636
4.1643210,.0058529
4.1847390,.0073888
4.2051560,.0066289
4.2255730,.0046590
4.2459900,.0046804
4.2664070,.0049145
4.2868240,.0044236
4.3072410,.0064414
4.3276590,.0080711
4.3480760,.0069846
4.3684930,.0057688
4.3889100,.0051997
4.4093280,.0032401
4.4297450,.0024446
4.4501620,.0032013
4.4705790,.0030525
4.4909960,.0023217
4.5114140,.0019143
4.5318310,.0023799
4.5522480,.0007437
4.5726650,.0007567
4.5930820,.0027421
4.6134990,.0037575
4.6339160,.0034470
4.6543340,.0045918
4.6747510,.0056394
4.6951680,.0043266
4.7155850,.0042425
4.7360020,.0038998
4.7564200,.0041714
4.7768370,.0038610
4.7972540,.0037769
4.8176710,.0038868
4.8380890,.0041261
4.8585060,.0030396
4.8789230,.0027615
4.8993400,.0024834
4.9197570,.0026257
4.9401740,.0024123
4.9605910,.0035570
4.9810090,.0038933
5.0014260,.0043913
5.0218430,.0037575
5.0422600,.0035117
5.0626770,.0029426
5.0830950,.0025675
5.1035120,.0022247
5.1239290,.0031108
5.1443460,.0040938
5.1647630,.0032983
5.1851810,.0030525
5.2055980,.0033242
5.2260150,.0022377
5.2464320,.0020971
5.2668490,.0025791
5.2872660,.0018082
5.3076830,.0008839
5.3281010,.0014875
5.3485180,.0003126
5.3689350,-.0001186
5.3893520,.0005821
5.4097700,.0016384
5.4301870,.0011425
5.4506040,.0016815
5.4710210,.0021234
5.4914380,.0025007
5.5118560,.0024576
5.5322730,.0028672
5.5526900,.0024683
5.5731070,.0027809
5.5935240,.0033522
5.6139410,.0025653
5.6343580,.0027809
5.6547760,.0026085
5.6751930,.0023390
5.6956100,.0009378
5.7160270,.0017677
5.7364440,.0010132
5.7568620,.0011641
5.7772790,.0012503
5.7976960,.0015953
5.8181130,.0012288
5.8385310,.0012503
5.8589470,.0013310
5.8793640,.0013413
5.8997820,.0013137
5.9201990,.0017979
5.9406160,.0025998
5.9610330,.0032078
5.9814510,.0035570
6.0018680,.0042943
6.0222850,.0037057
6.0427020,.0035053
6.0631190,.0036281
6.0835370,.0024899
6.1039540,.0011900
6.1243710,.0011188
6.1447880,.0015004
6.1652050,.0017203
6.1856220,.0015521
6.2060390,.0017397
6.2264570,.0022183
6.2468740,.0018884
6.2672910,.0012029
6.2877080,.0010994
6.3081250,.0025804
6.3285430,.0021213
6.3489600,.0019208
6.3693770,.0018173
6.3897940,.0022312
6.4102120,.0009960
6.4306290,.0008601
6.4510460,.0007890
6.4714630,.0012029
6.4918800,.0012288
6.5122970,.0026451
6.5327140,.0037057
6.5531320,.0039580
6.5735490,.0040162
6.5939660,.0046241
6.6143830,.0029685
6.6348000,.0021536
6.6552180,.0020501
6.6756350,.0018173
6.6960520,.0018108
6.7164690,.0026774
6.7368870,.0024770
6.7573040,.0026968
6.7777210,.0028521
6.7981380,.0028456
6.8185550,.0030008
6.8389720,.0034147
6.8593890,.0026645
6.8798070,.0031257
6.9002240,.0030843
6.9206410,.0026052
6.9410580,.0025291
6.9614750,.0026618
6.9818930,.0016305
7.0023100,.0016986
7.0227270,.0016697
7.0431440,.0013497
7.0635610,.0027436
7.0839790,.0035555
7.1043960,.0029769
7.1248130,.0029804
7.1452300,.0024343
7.1656470,.0010797
7.1860640,.0005982
7.2064810,.0006988
7.2268990,.0008641
7.2473160,.0015144
7.2677330,.0015180
7.2881500,.0024270
7.3085680,.0026247
7.3289850,.0030164
7.3494020,.0041843
7.3698190,.0047055
7.3902360,.0038038
7.4106540,.0046160
7.4310700,.0039731
7.4514880,.0030392
7.4719050,.0025902
7.4923220,.0032732
7.5127390,.0024687
7.5331560,.0029900
7.5535740,.0028323
7.5739910,.0039359
7.5944080,.0035196
7.6148250,.0033296
7.6352420,.0031073
7.6556600,.0030791
7.6760770,.0021454
7.6964940,.0021495
7.7169110,.0022831
7.7373290,.0026431
7.7577450,.0039732
7.7781620,.0045273
7.7985800,.0053724
7.8189970,.0063793
7.8394140,.0075478
7.8598310,.0095570
7.8802490,.0120836
7.9006660,.0150307
7.9210830,.0189156
7.9415000,.0244174
7.9619170,.0332822
7.9823350,.0504576
8.0027510,.0861292
8.0231690,.1577589
8.0435860,.2665430
8.0640030,.3801128
8.0844200,.4638039
8.1048370,.4777133
8.1252550,.4199333
8.1456720,.3165591
8.1660890,.2022230
8.1865060,.1120099
8.2069230,.0683610
8.2273410,.0539765
8.2477580,.0447011
8.2681750,.0364605
8.2885920,.0256976
8.3090100,.0187829
8.3294270,.0173007
8.3498440,.0189552
8.3702610,.0236171
8.3906780,.0344229
8.4110960,.0505319
8.4315130,.0610791
8.4519300,.0604702
8.4723470,.0544288
8.4927640,.0420495
8.5131820,.0237851
8.5335980,.0104682
8.5540150,.0069170
8.5744320,.0060497
8.5948500,.0048915
8.6152670,.0050267
8.6356840,.0049679
8.6561010,.0050385
8.6765180,.0053031
8.6969360,.0052443
8.7173530,.0046036
8.7377700,.0049653
8.7581870,.0047774
8.7786050,.0045249
8.7990220,.0051778
8.8194390,.0050548
8.8398560,.0048670
8.8602730,.0049379
8.8806910,.0044915
8.9011080,.0036246
8.9215250,.0039543
8.9419420,.0046721
8.9623590,.0044522
8.9827770,.0051054
9.0031940,.0064701
9.0236110,.0068001
9.0440280,.0067743
9.0644450,.0073306
9.0848630,.0070138
9.1052800,.0065354
9.1256970,.0057983
9.1461140,.0048995
9.1665310,.0038715
9.1869480,.0034903
9.2073650,.0023654
9.2277820,.0022429
9.2481990,.0020881
9.2686170,.0022890
9.2890340,.0029102
9.3094510,.0032405
9.3298680,.0039911
9.3502860,.0042568
9.3707030,.0048135
9.3911200,.0043355
9.4115370,.0043103
9.4319540,.0034443
9.4523720,.0034514
9.4727890,.0024561
9.4932060,.0019781
9.5136230,.0021469
9.5340400,.0017984
9.5544580,.0020966
9.5748750,.0023948
9.5952920,.0025961
9.6157090,.0025710
9.6361270,.0028693
9.6565440,.0027150
9.6769610,.0034660
9.6973780,.0034733
9.7177950,.0037392
9.7382130,.0037789
9.7586300,.0033982
9.7790470,.0029852
9.7994630,.0030896
9.8198800,.0027089
9.8402980,.0028457
9.8607150,.0025944
9.8811320,.0024078
9.9015490,.0022535
9.9219670,.0021316
9.9423840,.0026887
9.9628010,.0027609
9.9832180,.0028653
10.0036400,.0026788
10.0240500,.0027832
10.0444700,.0017559
10.0648900,.0021838
10.0853000,.0022559
10.1057200,.0025221
10.1261400,.0028853
10.1465600,.0036365
10.1669700,.0041290
10.1873900,.0033927
10.2078100,.0030768
10.2282200,.0025023
10.2486400,.0020894
10.2690600,.0013531
10.2894800,.0016193
10.3098900,.0016591
10.3303100,.0014079
10.3507300,.0020914
10.3711500,.0020929
10.3915600,.0022208
10.4119800,.0019254
10.4324000,.0027911
10.4528100,.0029130
10.4732300,.0029703
10.4936500,.0029953
10.5140600,.0035376
10.5344800,.0029805
10.5549000,.0019707
10.5753200,.0021573
10.5957300,.0020529
10.6161500,.0020455
10.6365700,.0019088
10.6569900,.0024835
10.6774000,.0029934
10.6978200,.0031477
10.7182400,.0030110
10.7386500,.0037150
10.7590700,.0036106
10.7794900,.0034416
10.7999100,.0041133
10.8203200,.0046879
10.8407400,.0056506
10.8611600,.0067104
10.8815700,.0075114
10.9019900,.0078274
10.9224100,.0088224
10.9428300,.0078450
10.9632400,.0069969
10.9836600,.0056637
11.0040800,.0048803
11.0245000,.0035471
11.0449100,.0032164
11.0653300,.0031120
11.0857500,.0036220
11.1061600,.0044231
11.1265800,.0045450
11.1470000,.0048610
11.1674100,.0046596
11.1878300,.0044583
11.2082500,.0029634
11.2286700,.0029561
11.2490800,.0030134
11.2695000,.0043318
11.2899200,.0049712
11.3103400,.0056753
11.3307500,.0068967
11.3511700,.0082474
11.3715900,.0089192
11.3920000,.0108843
11.4124200,.0133992
11.4328400,.0145560
11.4532600,.0154864
11.4736700,.0149940
11.4940900,.0131435
11.5145100,.0118750
11.5349200,.0097335
11.5553400,.0078183
11.5757600,.0065175
11.5961800,.0060574
11.6165900,.0045626
11.6370100,.0037792
11.6574300,.0028018
11.6778500,.0024388
11.6982600,.0018170
11.7186800,.0013893
11.7391000,.0019317
11.7595100,.0025711
11.7799300,.0022404
11.8003500,.0020714
11.8207600,.0022904
11.8411800,.0016687
11.8616000,.0008853
11.8820200,.0009750
11.9024300,.0013880
11.9228500,.0014454
11.9432700,.0016321
11.9636900,.0019804
11.9841000,.0027168
12.0045200,.0030329
12.0249400,.0034459
12.0453500,.0036003
12.0657700,.0033343
12.0861900,.0029389
12.1066100,.0025436
12.1270200,.0019542
12.1474400,.0015265
12.1678600,.0017455
12.1882700,.0022232
12.2086900,.0019249
12.2291100,.0021116
12.2495300,.0028157
12.2699400,.0029700
12.2903600,.0032214
12.3107800,.0037638
12.3311900,.0044679
12.3516100,.0045576
12.3720300,.0046796
12.3924500,.0042842
12.4128600,.0045033
12.4332800,.0044960
12.4537000,.0039066
12.4741100,.0035436
12.4945300,.0029865
12.5149500,.0023648
12.5353700,.0020018
12.5557800,.0023825
12.5762000,.0020195
12.5966200,.0021401
12.6170300,.0014832
12.6374500,.0011807
12.6578700,.0005210
12.6782900,.0013473
12.6987000,.0014947
12.7191200,.0016420
12.7395400,.0016923
12.7599600,.0018396
12.7803700,.0018252
12.8007900,.0017785
12.8212100,.0022815
12.8416200,.0021378
12.8620400,.0024791
12.8824600,.0023031
12.9028800,.0023534
12.9232900,.0023390
12.9437100,.0024863
12.9641300,.0024073
12.9845400,.0020048
13.0049600,.0019258
13.0253800,.0018144
13.0458000,.0017677
13.0662100,.0016887
13.0866300,.0019653
13.1070500,.0023390
13.1274600,.0022276
13.1478800,.0023102
13.1683000,.0021342
13.1887200,.0019258
13.2091300,.0019114
13.2295500,.0026731
13.2499700,.0026264
13.2703800,.0030324
13.2908000,.0031474
13.3112200,.0024540
13.3316400,.0021809
13.3520500,.0019725
13.3724700,.0017641
13.3928900,.0017174
13.4133100,.0021234
13.4337200,.0019797
13.4541400,.0021917
13.4745600,.0019510
13.4949700,.0017749
13.5153900,.0022456
13.5358100,.0023929
13.5562300,.0021845
13.5766400,.0023318
13.5970600,.0025438
13.6174800,.0022384
13.6378900,.0019653
13.6583100,.0014336
13.6787300,.0014192
13.6991500,.0009521
13.7195600,.0004527
13.7399800,.0003737
13.7604000,.0005856
13.7808100,.0008623
13.8012300,.0011066
13.8216500,.0009306
13.8420700,.0007868
13.8624800,.0007725
13.8829000,.0003701
13.9033200,.0009054
13.9237300,.0010851
13.9441500,.0010060
13.9645700,.0017030
13.9849900,.0021090
14.0054000,.0020623
14.0258200,.0021450
14.0462400,.0019689
14.0666600,.0015665
14.0870700,.0013581
14.1074900,.0007294
14.1279100,.0009090
14.1483200,.0011857
14.1687400,.0014623
14.1891600,.0013186
14.2095700,.0015306
14.2299900,.0014192
14.2504100,.0016959
14.2708300,.0016168
14.2912400,.0016671
14.3116600,.0014911
14.3320800,.0013473
14.3525000,.0011390
14.3729100,.0005749
14.3933300,.0005282
14.4137500,.0004491
14.4341600,.0004977
14.4545800,.0006093
14.4750000,.0012689
14.4954200,.0012478
14.5158300,.0015483
14.5362500,.0019458
14.5566700,.0017936
14.5770800,.0015121
14.5975000,.0014893
14.6179200,.0015958
14.6383400,.0013143
14.6587500,.0010327
14.6791700,.0008159
14.6995900,.0008254
14.7200100,.0008350
14.7404200,.0007798
14.7608400,.0012744
14.7812600,.0017367
14.8016700,.0019402
14.8220900,.0016587
14.8425100,.0019916
14.8629200,.0014191
14.8833400,.0016227
14.9037600,.0018910
14.9241800,.0020623
14.9445900,.0011341
14.9650100,.0014347
14.9854300,.0010239
15.0058500,.0003545
15.0262600,.0001377
15.0466800,.0005030
15.0671000,.0006420
15.0875100,.0004576
15.1079300,.0010816
15.1283500,.0013176
15.1487700,.0015537
15.1691800,.0014340
15.1896000,.0015406
15.2100200,.0011946
15.2304300,.0009456
15.2508500,.0007936
15.2712700,.0005122
15.2916900,.0004896
15.3121000,.0005964
15.3325200,.0006061
15.3529400,.0006805
15.3733500,.0011106
15.3937700,.0016054
15.4141900,.0014858
15.4346100,.0021746
15.4550200,.0025078
15.4754400,.0024852
15.4958600,.0020100
15.5162700,.0022462
15.5366900,.0018356
15.5571100,.0014898
15.5775300,.0011762
15.5979400,.0012184
15.6183600,.0008726
15.6387800,.0009471
15.6591900,.0012156
15.6796100,.0011932
15.7000300,.0012031
15.7204500,.0012777
15.7408600,.0008996
15.7612800,.0004245
15.7817000,.0006931
15.8021200,.0006060
15.8225300,.0005837
15.8429500,.0006906
15.8633700,.0006359
15.8837800,.0009046
15.9042000,.0009793
15.9246200,.0008923
15.9450400,.0010317
15.9654500,.0013974
15.9858700,.0010518
16.0062900,.0012235
16.0267000,.0016216
16.0471200,.0018257
16.0675400,.0020944
16.0879600,.0024279
16.1083700,.0036021
16.1287900,.0054554
16.1492100,.0096369
16.1696200,.0139155
16.1900400,.0181940
16.2104600,.0223109
16.2308800,.0277859
16.2512900,.0307710
16.2717100,.0314279
16.2921300,.0296273
16.3125500,.0261775
16.3329600,.0193971
16.3533800,.0125844
16.3738000,.0078413
16.3942100,.0060407
16.4146300,.0045958
16.4350500,.0046384
16.4554700,.0046164
16.4758800,.0049823
16.4963000,.0044106
16.5167200,.0040652
16.5371300,.0032995
16.5575500,.0025985
16.5779700,.0016387
16.5983800,.0014874
16.6188000,.0016918
16.6392200,.0019285
16.6596400,.0018419
16.6800500,.0020786
16.7004700,.0021860
16.7208900,.0021641
16.7413100,.0019482
16.7617200,.0025084
16.7821400,.0026159
16.8025600,.0023353
16.8229800,.0019901
16.8433900,.0018712
16.8638100,.0015583
16.8842300,.0016011
16.9046400,.0027434
16.9250600,.0041443
16.9454800,.0050279
16.9658900,.0054912
16.9863100,.0057281
17.0067300,.0046716
17.0271500,.0032916
17.0475600,.0023968
17.0679800,.0019223
17.0884000,.0012861
17.1088100,.0012644
17.1292300,.0012426
17.1496500,.0013502
17.1700700,.0012962
17.1904800,.0016302
17.2109000,.0013174
17.2313200,.0011017
17.2517400,.0007243
17.2721500,.0005732
17.2925700,.0005838
17.3129900,.0005622
17.3334000,.0010579
17.3538200,.0015212
17.3742400,.0016936
17.3946600,.0013809
17.4150700,.0017150
17.4354900,.0015316
17.4559100,.0009603
17.4763200,.0011650
17.4967400,.0011757
17.5171600,.0011864
17.5375800,.0010677
17.5579900,.0015958
17.5784100,.0010892
17.5988300,.0013263
17.6192500,.0013693
17.6396600,.0011860
17.6600800,.0014878
17.6805000,.0018866
17.7009100,.0017356
17.7213300,.0019727
17.7417500,.0022422
17.7621700,.0019619
17.7825800,.0016170
17.8030000,.0019187
17.8234200,.0021559
17.8438300,.0021019
17.8642500,.0020480
17.8846700,.0022852
17.9050800,.0020696
17.9255000,.0013689
17.9459200,.0017677
17.9663400,.0015522
17.9867500,.0017246
18.0071700,.0019941
18.0275900,.0021665
18.0480100,.0021773
18.0684200,.0023498
18.0888400,.0026193
18.1092600,.0025654
18.1296700,.0025761
18.1500900,.0022636
18.1705100,.0023390
18.1909300,.0018647
18.2113400,.0018755
18.2317600,.0018863
18.2521800,.0017677
18.2725900,.0018755
18.2930100,.0016599
18.3134300,.0015084
18.3338500,.0011298
18.3542600,.0011386
18.3746800,.0009203
18.3951000,.0013482
18.4155100,.0009029
18.4359300,.0013954
18.4563500,.0014029
18.4767700,.0016043
18.4971800,.0013854
18.5176000,.0016193
18.5380200,.0009800
18.5584400,.0008258
18.5788500,.0004776
18.5992700,.0008408
18.6196900,.0008160
18.6401000,.0010175
18.6605200,.0009927
18.6809400,.0010002
18.7013500,.0007490
18.7217700,.0006918
18.7421900,.0009257
18.7626100,.0010303
18.7830200,.0012642
18.8034400,.0013041
18.8238600,.0012470
18.8442800,.0010606
18.8646900,.0011651
18.8851100,.0015607
18.9055300,.0014066
18.9259500,.0017053
18.9463600,.0019392
18.9667800,.0020762
18.9872000,.0020192
19.0076100,.0022208
19.0280300,.0020021
19.0484500,.0022038
19.0688600,.0023731
19.0892800,.0018634
19.1097000,.0018064
19.1301200,.0020404
19.1505300,.0016278
19.1709500,.0014091
19.1913700,.0017079
19.2117800,.0016833
19.2322000,.0017557
19.2526200,.0022162
19.2730400,.0019006
19.2934500,.0019083
19.3138700,.0020454
19.3342900,.0021179
19.3547100,.0021580
19.3751200,.0024245
19.3955400,.0024647
19.4159600,.0022139
19.4363700,.0019307
19.4567900,.0017446
19.4772100,.0018171
19.4976300,.0013399
19.5180400,.0012831
19.5384600,.0013233
19.5588800,.0012666
19.5792900,.0010481
19.5997100,.0010884
19.6201300,.0013551
19.6405400,.0013954
19.6609600,.0015651
19.6813800,.0015407
19.7018000,.0017103
19.7222100,.0014273
19.7426300,.0013059
19.7630500,.0010229
19.7834700,.0008046
19.8038800,.0007480
19.8243000,.0005621
19.8447200,.0007318
19.8651400,.0008046
19.8855500,.0010714
19.9059700,.0010471
19.9263900,.0016696
19.9468000,.0017424
19.9672200,.0018475
19.9876400,.0015000
20.0080500,.0017991
20.0284700,.0015163
20.0488900,.0017509
20.0693100,.0014680
20.0897200,.0019289
20.1101400,.0015814
20.1305600,.0014926
20.1509800,.0009834
20.1713900,.0007653
20.1918100,.0008382
20.2122300,.0010082
20.2326400,.0010811
20.2530600,.0011864
20.2734800,.0018415
20.2939000,.0019791
20.3143100,.0018580
20.3347300,.0021250
20.3551500,.0022627
20.3755600,.0018183
20.3959800,.0018266
20.4164000,.0019967
20.4368200,.0018757
20.4572300,.0022074
20.4776500,.0025068
20.4980700,.0022565
20.5184800,.0023619
20.5389000,.0026290
20.5593200,.0024110
20.5797400,.0021607
20.6001500,.0023632
20.6205700,.0020806
20.6409900,.0018627
20.6614100,.0021945
20.6818200,.0026880
20.7022400,.0026641
20.7226600,.0029636
20.7430700,.0029073
20.7634900,.0020751
20.7839100,.0018895
20.8043300,.0017040
20.8247400,.0017771
20.8451600,.0017533
20.8655800,.0019235
20.8859900,.0016733
20.9064100,.0013585
20.9268300,.0012700
20.9472400,.0014725
20.9676600,.0012870
20.9880800,.0015542
21.0085000,.0017244
21.0289100,.0018623
21.0493300,.0017091
21.0697500,.0020734
21.0901700,.0014029
21.1105800,.0017671
21.1310000,.0015170
21.1514200,.0013638
21.1718300,.0012107
21.1922500,.0015749
21.2126700,.0011631
21.2330900,.0012040
21.2535000,.0012449
21.2739200,.0015122
21.2943400,.0014884
21.3147500,.0016587
21.3351700,.0017642
21.3555900,.0015788
21.3760100,.0013933
21.3964200,.0018223
21.4168400,.0019925
21.4372600,.0020011
21.4576700,.0023007
21.4780900,.0022123
21.4985100,.0016388
21.5189300,.0014210
21.5393400,.0013650
21.5597600,.0009208
21.5801800,.0011881
21.6006000,.0014554
21.6210100,.0017550
21.6414300,.0013432
21.6618500,.0014488
21.6822600,.0010047
21.7026800,.0013043
21.7231000,.0010219
21.7435200,.0013862
21.7639300,.0018475
21.7843500,.0020825
21.8047700,.0019294
21.8251800,.0017440
21.8456000,.0013969
21.8660200,.0008881
21.8864400,.0007674
21.9068500,.0007437
21.9272700,.0005906
21.9476900,.0005669
21.9681100,.0010605
21.9885200,.0010692
22.0089400,.0009484
22.0293600,.0010864
22.0497700,.0013214
22.0701900,.0010713
22.0906100,.0014033
22.1110200,.0013796
22.1314400,.0016793
22.1518600,.0020113
22.1722800,.0019552
22.1926900,.0017052
22.2131100,.0018108
22.2335300,.0014961
22.2539400,.0010197
22.2743600,.0009637
22.2947800,.0009077
22.3152000,.0008193
22.3356100,.0008603
22.3560300,.0010630
22.3764500,.0011040
22.3968700,.0008216
22.4172800,.0011859
22.4377000,.0012593
22.4581200,.0013973
22.4785300,.0018263
22.4989500,.0023201
22.5193700,.0019407
22.5397900,.0020787
22.5602000,.0018934
22.5806200,.0014170
22.6010400,.0012963
22.6214500,.0012727
22.6418700,.0016047
22.6622900,.0017751
22.6827100,.0021072
22.7031200,.0024069
22.7235400,.0028359
22.7439600,.0024566
22.7643700,.0024006
22.7847900,.0025063
22.8052100,.0023210
22.8256300,.0021034
22.8460400,.0022738
22.8664600,.0021208
22.8868800,.0022265
22.9073000,.0023969
22.9277100,.0021793
22.9481300,.0024467
22.9685500,.0031668
22.9889600,.0025934
23.0093800,.0025052
23.0298000,.0029666
23.0502100,.0025549
23.0706300,.0020140
23.0910500,.0024754
23.1114700,.0025811
23.1318800,.0019755
23.1523000,.0018225
23.1727200,.0019606
23.1931400,.0016137
23.2135500,.0016224
23.2339700,.0022455
23.2543900,.0025776
23.2748100,.0024570
23.2952200,.0027245
23.3156400,.0026039
23.3360600,.0021599
23.3564700,.0023304
23.3768900,.0022421
23.3973100,.0020568
23.4177200,.0018716
23.4381400,.0022360
23.4585600,.0021478
23.4789800,.0022212
23.4993900,.0022946
23.5198100,.0026268
23.5402300,.0024739
23.5606400,.0023856
23.5810600,.0023297
23.6014800,.0025648
23.6219000,.0023149
23.6423100,.0021943
23.6627300,.0019767
23.6831500,.0021148
23.7035700,.0019619
23.7239800,.0019060
23.7444000,.0020442
23.7648200,.0023116
23.7852300,.0021587
23.8056500,.0019088
23.8260700,.0018852
23.8464900,.0016030
23.8669000,.0014501
23.8873200,.0014912
23.9077400,.0015646
23.9281500,.0019291
23.9485700,.0019702
23.9689900,.0019467
23.9894000,.0018584
24.0098200,.0018672
24.0302400,.0019083
24.0506600,.0019818
24.0710700,.0020875
24.0914900,.0020640
24.1119100,.0021051
24.1323300,.0018875
24.1527400,.0017670
24.1731600,.0017434
24.1935800,.0016228
24.2139900,.0012436
24.2344100,.0012184
24.2548300,.0012241
24.2752500,.0013252
24.2956600,.0015218
24.3160800,.0017168
24.3365000,.0015561
24.3569100,.0018481
24.3773300,.0020431
24.3977500,.0017207
24.4181700,.0020774
24.4385800,.0020137
24.4590000,.0020147
24.4794200,.0018217
24.4998400,.0025341
24.5202500,.0024381
24.5406700,.0024391
24.5610900,.0024078
24.5815000,.0024088
24.6019200,.0023775
24.6223400,.0021845
24.6427600,.0026059
24.6631700,.0025746
24.6835900,.0022523
24.7040100,.0018006
24.7244200,.0022544
24.7448400,.0021261
24.7652600,.0021595
24.7856800,.0026132
24.8060900,.0026790
24.8265100,.0027447
24.8469300,.0028105
24.8673400,.0031026
24.8877600,.0030713
24.9081800,.0030401
24.9286000,.0028149
24.9490100,.0029453
24.9694300,.0026554
24.9898500,.0025272
25.0102700,.0027546
25.0306800,.0028204
25.0511000,.0024659
25.0715200,.0025964
25.0919300,.0025005
25.1123500,.0024047
25.1327700,.0020825
25.1531800,.0021483
25.1736000,.0022789
25.1940200,.0024741
25.2144400,.0025399
25.2348500,.0029615
25.2552700,.0032861
25.2756900,.0027052
25.2961000,.0024801
25.3165200,.0024490
25.3369400,.0019329
25.3573600,.0017725
25.3777700,.0018707
25.3981900,.0021630
25.4186100,.0020673
25.4390300,.0022626
25.4594400,.0022962
25.4798600,.0021035
25.5002800,.0016844
25.5206900,.0017181
25.5411100,.0018164
25.5615300,.0016561
25.5819500,.0023365
25.6023600,.0023702
25.6227800,.0023715
25.6432000,.0020172
25.6636100,.0019215
25.6840300,.0012762
25.7044500,.0012129
25.7248700,.0012143
25.7452800,.0012481
25.7657000,.0009585
25.7861200,.0011216
25.8065400,.0010584
25.8269500,.0009628
25.8473700,.0008996
25.8677900,.0011274
25.8882000,.0012582
25.9086200,.0014860
25.9290400,.0015522
25.9494600,.0018447
25.9698700,.0022020
25.9902900,.0020742
26.0107100,.0022374
26.0311200,.0024329
26.0515400,.0022404
26.0719600,.0019833
26.0923700,.0022112
26.1127900,.0023098
26.1332100,.0019557
26.1536300,.0019249
26.1740400,.0016355
26.1944600,.0015725
26.2148800,.0009920
26.2353000,.0015757
26.2557100,.0014156
26.2761300,.0015143
26.2965500,.0016776
26.3169700,.0020350
26.3373800,.0014223
26.3578000,.0019090
26.3782200,.0022664
26.3986300,.0020741
26.4190500,.0018171
26.4394700,.0019482
26.4598800,.0018205
26.4803000,.0019516
26.5007200,.0021474
26.5211400,.0023431
26.5415500,.0023449
26.5619700,.0019910
26.5823900,.0016048
26.6028000,.0015095
26.6232200,.0017700
26.6436400,.0017071
26.6640600,.0019029
26.6844700,.0022604
26.7048900,.0019712
26.7253100,.0018114
26.7457300,.0020073
26.7661400,.0023325
26.7865600,.0022374
26.8069800,.0023362
26.8273900,.0024028
26.8478100,.0021136
26.8682300,.0019538
26.8886500,.0019557
26.9090600,.0021193
26.9294800,.0017978
26.9499000,.0018644
26.9703100,.0017693
26.9907300,.0017066
27.0111500,.0014498
27.0315700,.0014841
27.0519800,.0019064
27.0724000,.0020377
27.0928200,.0016516
27.1132400,.0020093
27.1336500,.0019466
27.1540700,.0020456
27.1744900,.0019182
27.1949000,.0020819
27.2153200,.0021486
27.2357400,.0024740
27.2561600,.0020232
27.2765700,.0019929
27.2969900,.0018332
27.3174100,.0014149
27.3378200,.0011906
27.3582400,.0013219
27.3786600,.0011623
27.3990700,.0013584
27.4194900,.0014574
27.4399100,.0014918
27.4603300,.0015585
27.4807400,.0020456
27.5011600,.0020153
27.5215800,.0020174
27.5420000,.0021165
27.5624100,.0022802
27.5828300,.0022500
27.6032500,.0022844
27.6236600,.0021248
27.6440800,.0020946
27.6645000,.0018380
27.6849200,.0017107
27.7053300,.0017451
27.7257500,.0014239
27.7461700,.0012643
27.7665800,.0012341
27.7870000,.0010422
27.8074200,.0012383
27.8278400,.0018225
27.8482500,.0020509
27.8686700,.0024411
27.8890900,.0026372
27.9095000,.0025746
27.9299200,.0024151
27.9503400,.0023849
27.9707600,.0019019
27.9911700,.0014837
28.0115900,.0011948
28.0320100,.0009706
28.0524300,.0008433
28.0728400,.0009101
28.0932600,.0011386
28.1136800,.0014964
28.1340900,.0016602
28.1545100,.0016947
28.1749300,.0016968
28.1953400,.0019253
28.2157600,.0017657
28.2361800,.0018972
28.2566000,.0019317
28.2770100,.0019661
28.2974300,.0014832
28.3178500,.0016458
28.3382700,.0016454
28.3586800,.0014497
28.3791000,.0012528
28.3995200,.0016690
28.4199300,.0013092
28.4403500,.0014667
28.4607700,.0015595
28.4811900,.0019111
28.5016000,.0018099
28.5220200,.0018058
28.5424400,.0014460
28.5628500,.0013125
28.5832700,.0010821
28.6036900,.0010134
28.6241100,.0010093
28.6445200,.0012963
28.6649400,.0013569
28.6853600,.0011912
28.7057700,.0014458
28.7261900,.0014742
28.7466100,.0015349
28.7670300,.0015956
28.7874400,.0018180
28.8078600,.0017818
28.8282800,.0017779
28.8487000,.0014507
28.8691100,.0016408
28.8895300,.0015722
28.9099500,.0013420
28.9303600,.0012735
28.9507800,.0014637
28.9712000,.0012983
28.9916200,.0014239
29.0120300,.0016789
29.0324500,.0020633
29.0528700,.0017686
29.0732800,.0017002
29.0937000,.0016319
29.1141200,.0013695
29.1345300,.0010749
29.1549500,.0012330
29.1753700,.0015528
29.1957900,.0016141
29.2162000,.0015783
29.2366200,.0015749
29.2570400,.0016362
29.2774600,.0014387
29.2978700,.0014353
29.3182900,.0014966
29.3387100,.0015579
29.3591300,.0015869
29.3795400,.0017777
29.3999600,.0017745
29.4203800,.0020625
29.4407900,.0021887
29.4612100,.0018946
29.4816300,.0015358
29.5020400,.0015326
29.5224600,.0012708
29.5428800,.0012355
29.5633000,.0015235
29.5837100,.0015206
29.6041300,.0011297
29.6245500,.0008683
29.6449700,.0008332
29.6653800,.0006040
29.6858000,.0006659
29.7062200,.0006632
29.7266300,.0008544
29.7470500,.0008841
29.7674700,.0008814
29.7878900,.0008142
29.8083000,.0008118
29.8287200,.0005183
29.8491400,.0001926
29.8695500,.0002225
29.8899700,.0002848
29.9103900,.0002824
29.9308100,.0006357
29.9512200,.0007627
29.9716400,.0007605
29.9920600,.0008877
30.0124700,.0014353
30.0328900,.0013040
30.0533100,.0015284
30.0737300,.0015587
30.0941400,.0015244
30.1145600,.0014901
30.1349800,.0016821
30.1554000,.0017125
30.1758100,.0018724
30.1962300,.0016120
30.2166500,.0014810
30.2370600,.0013178
30.2574800,.0009928
30.2779000,.0012823
30.2983200,.0015071
30.3187300,.0013762
30.3391500,.0014070
30.3595700,.0016642
30.3799800,.0014688
30.4004000,.0014352
30.4208200,.0014340
30.4412300,.0015622
30.4616500,.0015288
30.4820700,.0010750
30.5024900,.0010092
30.5229000,.0012668
30.5433200,.0011040
30.5637400,.0009413
30.5841600,.0014577
30.6045700,.0015539
30.6249900,.0011975
30.6454100,.0013262
30.6658200,.0012932
30.6862400,.0011632
30.7066600,.0010333
30.7270800,.0010973
30.7474900,.0009996
30.7679100,.0013871
30.7883300,.0012573
30.8087400,.0012570
30.8291600,.0014831
30.8495800,.0014183
30.8700000,.0011271
30.8904100,.0012239
30.9108300,.0012561
30.9312500,.0013530
30.9516600,.0015145
30.9720800,.0014821
30.9925000,.0014821
31.0129200,.0015146
31.0333300,.0010298
31.0537500,.0010301
31.0741700,.0010951
31.0945900,.0011601
31.1150000,.0014838
31.1354200,.0016135
31.1558400,.0018725
31.1762500,.0016789
31.1966700,.0014531
31.2170900,.0010333
31.2375000,.0010987
31.2579200,.0006468
31.2783400,.0009387
31.2987600,.0011335
31.3191700,.0014900
31.3395900,.0011998
31.3600100,.0015564
31.3804300,.0013956
31.4008400,.0011702
31.4212600,.0008803
31.4416800,.0010756
31.4621000,.0007212
31.4825100,.0007872
31.5029300,.0009825
31.5233500,.0009191
31.5437600,.0010821
31.5641800,.0012128
31.5846000,.0011495
31.6050100,.0009893
31.6254300,.0013790
31.6458500,.0011867
31.6662700,.0010914
31.6866800,.0011579
31.7071000,.0010627
31.7275200,.0007088
31.7479300,.0009693
31.7683500,.0009387
31.7887700,.0006819
31.8091900,.0007809
31.8296000,.0008154
31.8500200,.0006559
31.8704400,.0008522
31.8908600,.0012748
31.9112700,.0017621
31.9316900,.0017644
31.9521100,.0017343
31.9725200,.0015426
31.9929400,.0013509
32.0133600,.0008360
32.0337800,.0011943
32.0541900,.0013586
32.0746100,.0010703
32.0950300,.0008144
32.1154400,.0009788
32.1358600,.0007552
32.1562800,.0004669
32.1767000,.0010517
32.1971100,.0015396
32.2175300,.0015425
32.2379500,.0014485
32.2583700,.0015809
32.2787800,.0013901
32.2992000,.0012963
32.3196100,.0010085
32.3400300,.0009470
32.3604500,.0007562
32.3808700,.0007917
32.4012800,.0007303
32.4217000,.0006367
32.4421200,.0006724
32.4625400,.0008053
32.4829500,.0009383
32.5033700,.0009096
32.5237900,.0010102
32.5442000,.0010139
32.5646200,.0008235
32.5850400,.0005037
32.6054600,.0007015
32.6258700,.0009639
32.6462900,.0007415
32.6667100,.0010365
32.6871300,.0012992
32.7075400,.0011739
32.7279600,.0008869
32.7483800,.0010526
32.7688000,.0012507
32.7892100,.0013841
32.8096300,.0013559
32.8300400,.0014894
32.8504600,.0015584
32.8708800,.0013687
32.8913000,.0010821
32.9117100,.0010542
32.9321300,.0012526
32.9525500,.0013864
32.9729700,.0014555
32.9933800,.0015246
33.0138000,.0014645
33.0342200,.0019218
33.0546300,.0019588
33.0750500,.0018665
33.0954700,.0017096
33.1158900,.0018114
33.1363000,.0015252
33.1567200,.0015947
33.1771400,.0018581
33.1975600,.0022833
33.2179700,.0020942
33.2383900,.0020021
33.2588100,.0020718
33.2792200,.0017211
33.2996400,.0016616
33.3200600,.0019254
33.3404800,.0022539
33.3608900,.0021297
33.3813100,.0023289
33.4017300,.0021724
33.4221500,.0019189
33.4425600,.0015361
33.4629800,.0013151
33.4833900,.0011911
33.5038100,.0011319
33.5242300,.0013637
33.5446500,.0012721
33.5650600,.0014069
33.5854800,.0018974
33.6059000,.0020646
33.6263200,.0018761
33.6467300,.0016553
33.6671500,.0014345
33.6875700,.0010198
33.7079800,.0011226
33.7284000,.0013223
33.7488200,.0014897
33.7692400,.0014955
33.7896500,.0013395
33.8100700,.0010866
33.8304900,.0009630
33.8509100,.0009688
33.8713200,.0011364
33.8917400,.0009483
33.9121600,.0007926
33.9325800,.0006692
33.9529900,.0009016
33.9734100,.0010046
33.9938200,.0016573
34.0142400,.0016956
34.0346600,.0017986
34.0550800,.0016107
34.0754900,.0013257
34.0959100,.0009762
34.1163300,.0011441
34.1367500,.0014090
34.1571600,.0017709
34.1775800,.0022621
34.1980000,.0019773
34.2184100,.0021775
34.2388300,.0018603
34.2592500,.0018019
34.2796700,.0014525
34.3000800,.0017499
34.3205000,.0014653
34.3409200,.0015686
34.3613400,.0014780
34.3817500,.0014844
34.4021700,.0014584
34.4225800,.0014971
34.4430000,.0016005
34.4634200,.0014776
34.4838400,.0015488
34.5042500,.0015229
34.5246700,.0013678
34.5450900,.0013419
34.5655100,.0013485
34.5859200,.0014843
34.6063400,.0017495
34.6267600,.0016914
34.6471700,.0016009
34.6675900,.0016075
34.6880100,.0014524
34.7084300,.0013943
34.7288400,.0014980
34.7492600,.0014399
34.7696800,.0014142
34.7901000,.0015178
34.8105100,.0014598
34.8309300,.0016604
34.8513500,.0014731
34.8717700,.0014797
34.8921800,.0015511
34.9126000,.0016871
34.9330100,.0014998
34.9534300,.0014418
34.9738500,.0015455
34.9942700,.0013906
35.0146800,.0011709
35.0351000,.0013070
35.0555200,.0014107
35.0759400,.0014821
35.0963500,.0014888
35.1167700,.0017542
35.1371900,.0020520
35.1576000,.0024791
35.1780200,.0024535
35.1984400,.0027189
35.2188600,.0025316
35.2392700,.0023120
35.2596900,.0021247
35.2801100,.0020991
35.3005300,.0022999
35.3209400,.0023390
35.3413600,.0021194
35.3617700,.0020938
35.3821900,.0022622
35.4026100,.0018162
35.4230300,.0016289
35.4434400,.0014740
35.4638600,.0015764
35.4842800,.0010630
35.5047000,.0010979
35.5251100,.0011962
35.5455300,.0014547
35.5659500,.0014546
35.5863600,.0017132
35.6067800,.0016807
35.6272000,.0014865
35.6476200,.0016481
35.6680300,.0018096
35.6884500,.0020682
35.7088700,.0020034
35.7292900,.0021327
35.7497000,.0021650
35.7701200,.0019385
35.7905400,.0018738
35.8109600,.0019061
35.8313700,.0017120
35.8517900,.0016472
35.8722100,.0013885
35.8926200,.0011621
35.9130400,.0013884
35.9334600,.0016471
35.9538800,.0015178
35.9742900,.0018088
35.9947100,.0019382
36.0151300,.0018089
36.0355400,.0018089
36.0559600,.0020029
36.0763800,.0021000
36.0967900,.0018737
36.1172100,.0019061
36.1376300,.0019709
36.1580500,.0018417
36.1784600,.0015508
36.1988800,.0017126
36.2193000,.0017127
36.2397200,.0017775
36.2601300,.0019070
36.2805500,.0020041
36.3009700,.0019073
36.3213800,.0021016
36.3418000,.0019401
36.3622200,.0017140
36.3826400,.0016819
36.4030500,.0016822
36.4234700,.0012944
36.4438900,.0014564
36.4643100,.0013273
36.4847200,.0011982
36.5051400,.0011662
36.5255500,.0012959
36.5459700,.0014903
36.5663900,.0016524
36.5868100,.0021055
36.6072200,.0026233
36.6276400,.0025914
36.6480600,.0024301
36.6684800,.0024306
36.6888900,.0022046
36.7093100,.0019141
36.7297300,.0021733
36.7501400,.0021738
36.7705600,.0021421
36.7909800,.0020133
36.8114000,.0018845
36.8318100,.0017557
36.8522300,.0013683
36.8726500,.0013042
36.8930700,.0012078
36.9134800,.0010791
36.9339000,.0007564
36.9543200,.0011128
36.9747400,.0013722
36.9951500,.0014053
37.0155700,.0015353
37.0359800,.0016654
37.0564000,.0017955
37.0768200,.0014729
37.0972400,.0013766
37.1176500,.0015068
37.1380700,.0016370
37.1584900,.0014438
37.1789100,.0016711
37.1993200,.0018983
37.2197400,.0018992
37.2401600,.0017708
37.2605700,.0018363
37.2809900,.0017402
37.3014100,.0018705
37.3218300,.0014511
37.3422400,.0014197
37.3626600,.0013561
37.3830800,.0014542
37.4035000,.0011642
37.4239100,.0013593
37.4443300,.0017484
37.4647400,.0021374
37.4851600,.0021062
37.5055800,.0023659
37.5260000,.0024964
37.5464100,.0024005
37.5668300,.0020137
37.5872500,.0022736
37.6076700,.0023718
37.6280800,.0021466
37.6485000,.0018892
37.6689200,.0016964
37.6893300,.0015682
37.7097500,.0013754
37.7301700,.0017324
37.7505900,.0019924
37.7710000,.0021230
37.7914200,.0021244
37.8118400,.0023521
37.8322600,.0020624
37.8526700,.0018050
37.8730900,.0015477
37.8935100,.0015167
37.9139300,.0013887
37.9343400,.0013578
37.9547600,.0013268
37.9751700,.0017486
37.9955900,.0017824
38.0160100,.0019456
38.0364300,.0020764
38.0568400,.0021749
38.0772600,.0022410
38.0976800,.0022424
38.1181000,.0019206
38.1385100,.0020191
38.1589300,.0021823
38.1793500,.0018604
38.1997600,.0018943
38.2201800,.0019929
38.2406000,.0018328
38.2610200,.0017373
38.2814300,.0016095
38.3018500,.0014817
38.3222700,.0017420
38.3426900,.0016789
38.3631000,.0015835
38.3835200,.0016498
38.4039400,.0019425
38.4243500,.0015561
38.4447700,.0015900
38.4651900,.0014947
38.4856000,.0016903
38.5060200,.0016273
38.5264400,.0018229
38.5468600,.0019539
38.5672700,.0022789
38.5876900,.0022483
38.6081100,.0021853
38.6285200,.0022516
38.6489400,.0021887
38.6693600,.0021257
38.6897800,.0021920
38.7101900,.0019027
38.7306100,.0017750
38.7510300,.0016797
38.7714500,.0014550
38.7918600,.0012951
38.8122800,.0014261
38.8327000,.0012338
38.8531200,.0014619
38.8735300,.0016253
38.8939500,.0016593
38.9143700,.0016933
38.9347800,.0019537
38.9552000,.0018908
38.9756200,.0019571
38.9960400,.0018295
39.0164500,.0018959
39.0368700,.0015742
39.0572900,.0017700
39.0777100,.0015777
39.0981200,.0019027
39.1185400,.0014517
39.1389500,.0016140
39.1593700,.0013549
39.1797900,.0014828
39.2002100,.0011892
39.2206200,.0017030
39.2410400,.0017318
39.2614600,.0015988
39.2818800,.0015952
39.3022900,.0018180
39.3227100,.0015234
39.3431300,.0013904
39.3635400,.0014839
39.3839600,.0015126
39.4043800,.0013151
39.4248000,.0013115
39.4452100,.0015990
39.4656300,.0017571
39.4860500,.0019476
39.5064700,.0022674
39.5268800,.0023609
39.5473000,.0021310
39.5677100,.0019335
39.5881300,.0017360
39.6085500,.0015062
39.6289700,.0014704
39.6493800,.0014669
39.6698000,.0013988
39.6902200,.0010719
39.7106400,.0013272
39.7310500,.0015824
39.7514700,.0017083
39.7718900,.0017049
39.7923000,.0017338
39.8127200,.0015364
39.8331400,.0014684
39.8535600,.0013681
39.8739700,.0014617
39.8943900,.0019111
39.9148100,.0021017
39.9352300,.0020014
39.9556400,.0019657
39.9760600,.0019947
39.9964800,.0015388
40.0169000,.0015032
40.0373100,.0013059
40.0577300,.0012057
40.0781400,.0012025
40.0985600,.0014579
40.1189800,.0012930
40.1394000,.0014515
40.1598100,.0016100
40.1802300,.0012511
40.2006500,.0011833
40.2210700,.0008892
40.2414800,.0006921
40.2619000,.0008507
40.2823200,.0010416
40.3027300,.0008769
40.3231500,.0009384
40.3435700,.0011617
40.3639900,.0011587
40.3844000,.0013497
40.4048200,.0011850
40.4252400,.0012467
40.4456600,.0010498
40.4660700,.0008205
40.4864900,.0010116
40.5069000,.0012351
40.5273200,.0011998
40.5477400,.0011969
40.5681600,.0011294
40.5885700,.0008355
40.6089900,.0008003
40.6294100,.0007652
40.6498300,.0010212
40.6702400,.0012448
40.6906600,.0012097
40.7110800,.0011423
40.7314900,.0013012
40.7519100,.0013955
40.7723300,.0013281
40.7927500,.0010991
40.8131600,.0012581
40.8335800,.0012232
40.8540000,.0009296
40.8744200,.0007654
40.8948300,.0010215
40.9152500,.0008896
40.9356700,.0009841
40.9560900,.0011755
40.9765000,.0011730
40.9969200,.0012999
41.0173300,.0012327
41.0377500,.0009716
41.0581700,.0009369
41.0785900,.0011609
41.0990000,.0008352
41.1194200,.0008975
41.1398400,.0009921
41.1602600,.0006987
41.1806700,.0005347
41.2010900,.0007265
41.2215100,.0007565
41.2419200,.0007220
41.2623400,.0009785
41.2827600,.0010087
41.3031800,.0011035
41.3235900,.0011660
41.3440100,.0010668
41.3644300,.0010646
41.3848500,.0011272
41.4052600,.0012544
41.4256800,.0011230
41.4461000,.0012504
41.4665100,.0011190
41.4869300,.0012464
41.5073500,.0008564
41.5277700,.0011131
41.5481800,.0011111
41.5686000,.0013355
41.5890200,.0010749
41.6094400,.0012346
41.6298500,.0011034
41.6502700,.0008429
41.6706800,.0007441
41.6911000,.0009364
41.7115200,.0011286
41.7319400,.0010945
41.7523500,.0011574
41.7727700,.0010909
41.7931900,.0013479
41.8136100,.0013785
41.8340200,.0015708
41.8544400,.0017956
41.8748600,.0018263
41.8952800,.0013720
41.9156900,.0012087
41.9361100,.0012718
41.9565300,.0015613
41.9769400,.0019477
41.9973600,.0020432
42.0177800,.0018153
42.0382000,.0016845
42.0586100,.0013920
42.0790300,.0010996
42.0994500,.0011305
42.1198700,.0014848
42.1402800,.0013864
42.1607000,.0014497
42.1811100,.0014160
42.2015300,.0015440
42.2219500,.0014133
42.2423700,.0015414
42.2627800,.0014108
42.2832000,.0014742
42.3036200,.0016024
42.3240400,.0015688
42.3444500,.0012119
42.3648700,.0015664
42.3852900,.0013065
42.4057000,.0009497
42.4261200,.0006899
42.4465400,.0007858
42.4669600,.0005260
42.4873700,.0003633
42.5077900,.0002653
42.5282100,.0004260
42.5486300,.0009747
42.5690400,.0009737
42.5894600,.0011990
42.6098700,.0012627
42.6302900,.0013264
42.6507100,.0011638
42.6711300,.0012923
42.6915400,.0013238
42.7119600,.0016140
42.7323800,.0015162
42.7528000,.0009010
42.7732100,.0005768
42.7936300,.0003820
42.8140500,-.0002009
42.8344700,.0002187
42.8548800,.0004767
42.8753000,.0005084
42.8957200,.0011221
42.9161300,.0015419
42.9365500,.0012826
42.9569700,.0014759
42.9773900,.0015723
42.9978000,.0014100
43.0182200,.0011507
43.0386400,.0010855
43.0590600,.0008910
43.0794700,.0012785
43.0998900,.0007284
43.1203000,.0008249
43.1407200,.0012772
43.1611400,.0013738
43.1815600,.0011470
43.2019700,.0013406
43.2223900,.0014048
43.2428100,.0010165
43.2632300,.0012748
43.2836400,.0012746
43.3040600,.0011450
43.3244800,.0012417
43.3448900,.0012738
43.3653100,.0008532
43.3857300,.0008207
43.4061500,.0009174
43.4265600,.0008849
43.4469800,.0006584
43.4674000,.0008523
43.4878200,.0008199
43.5082300,.0007229
43.5286500,.0005612
43.5490600,.0009168
43.5694800,.0010138
43.5899000,.0009491
43.6103200,.0009491
43.6307300,.0010138
43.6511500,.0007228
43.6715700,.0007229
43.6919900,.0006261
43.7124000,.0008203
43.7328200,.0010791
43.7532400,.0012734
43.7736500,.0013706
43.7940700,.0015971
43.8144900,.0015326
43.8349100,.0013065
43.8553200,.0011128
43.8757400,.0008544
43.8961600,.0008225
43.9165800,.0012109
43.9369900,.0011143
43.9574100,.0011471
43.9778300,.0012769
43.9982500,.0014713
44.0186600,.0010837
44.0390800,.0010842
44.0595000,.0012140
44.0799100,.0009236
44.1003300,.0006009
44.1207500,.0007632
44.1411700,.0010226
44.1615800,.0007322
44.1820000,.0009269
44.2024200,.0010893
44.2228300,.0011869
44.2432500,.0011877
44.2636700,.0014148
44.2840800,.0015450
44.3045000,.0014488
44.3249200,.0013204
44.3453400,.0012244
44.3657500,.0012900
44.3861700,.0009999
44.4065900,.0007098
44.4270100,.0005490
44.4474200,.0003560
44.4678400,.0001954
44.4882600,.0003582
44.5086700,.0006180
44.5290900,.0004576
44.5495100,.0005881
44.5699300,.0006217
44.5903400,.0005582
44.6107600,.0005271
44.6311800,.0006253
44.6516000,.0003356
44.6720100,.0004016
44.6924300,.0004353
44.7128400,.0005338
44.7332600,.0004706
44.7536800,.0007308
44.7741000,.0005707
44.7945100,.0009279
44.8149300,.0008647
44.8353500,.0010603
44.8557700,.0009972
44.8761800,.0010311
44.8966000,.0010005
44.9170200,.0009053
44.9374400,.0008424
44.9578500,.0011353
44.9782700,.0013635
44.9986900,.0010743
45.0191000,.0010761
45.0395200,.0011426
45.0599400,.0010475
45.0803600,.0009848
45.1007700,.0008575
45.1211900,.0010536
45.1416100,.0008941
45.1620300,.0010257
45.1824400,.0011248
45.2028600,.0010623
45.2232700,.0008705
45.2436900,.0012930
45.2641100,.0011659
45.2845300,.0010389
45.3049400,.0010090
45.3253600,.0012378
45.3457800,.0008199
45.3662000,.0006931
45.3866100,.0004046
45.4070300,.0006012
45.4274500,.0008624
45.4478600,.0011560
45.4682800,.0012556
45.4887000,.0014199
45.5091200,.0013580
45.5295300,.0010375
45.5499500,.0008140
45.5703700,.0007199
45.5907900,.0008845
45.6112000,.0011138
45.6316200,.0010520
45.6520300,.0011843
45.6724500,.0012843
45.6928700,.0014813
45.7132900,.0014198
45.7337000,.0011320
45.7541200,.0012000
45.7745400,.0013326
45.7949600,.0011419
45.8153700,.0010805
45.8357900,.0016012
45.8562100,.0013781
45.8766300,.0011228
45.8970400,.0009969
45.9174600,.0010328
45.9378800,.0008424
45.9582900,.0011048
45.9787100,.0013025
45.9991300,.0013386
46.0195500,.0013746
46.0399600,.0012813
46.0603800,.0010586
46.0808000,.0009007
46.1012200,.0011310
46.1216300,.0011673
46.1420500,.0011713
46.1624600,.0012724
46.1828800,.0014382
46.2033000,.0011837
46.2237200,.0010584
46.2441300,.0007715
46.2645500,.0006463
46.2849700,.0005858
46.3053900,.0008488
46.3258000,.0010472
46.3462200,.0013427
46.3666400,.0013472
46.3870500,.0014488
46.4074700,.0010330
46.4278900,.0007788
46.4483100,.0006540
46.4687200,.0009173
46.4891400,.0006309
46.5095600,.0009913
46.5299800,.0011901
46.5503900,.0012597
46.5708100,.0010706
46.5912300,.0014313
46.6116400,.0012100
46.6320600,.0012149
46.6524800,.0014786
46.6729000,.0015159
46.6933100,.0012946
46.7137300,.0011704
46.7341500,.0012727
46.7545600,.0011487
46.7749800,.0012188
46.7954000,.0012889
46.8158100,.0015853
46.8362300,.0011703
46.8566500,.0010787
46.8770700,.0013105
46.8974800,.0010573
46.9179000,.0010306
46.9383200,.0011979
46.9587400,.0013330
46.9791500,.0009832
46.9995700,.0010214
47.0199900,.0010596
47.0404100,.0010654
47.0608200,.0011036
47.0812400,.0010771
47.1016600,.0013094
47.1220700,.0011214
47.1424900,.0009335
47.1629100,.0009073
47.1833300,.0008166
47.2037400,.0007259
47.2241600,.0007968
47.2445800,.0007061
47.2650000,.0005830
47.2854100,.0007187
47.3058300,.0005957
47.3262400,.0005051
47.3466600,.0008997
47.3670800,.0011003
47.3875000,.0012364
47.4079100,.0015017
47.4283300,.0016054
47.4487500,.0017738
47.4691700,.0014895
47.4895800,.0013345
47.5100000,.0014383
47.5304200,.0015422
47.5508300,.0010641
47.5712500,.0011034
47.5916700,.0013045
47.6120900,.0011176
47.6325000,.0009631
47.6529200,.0010348
47.6733400,.0012360
47.6937600,.0015017
47.7141700,.0014443
47.7345900,.0015162
47.7550000,.0018792
47.7754200,.0017896
47.7958400,.0016031
47.8162600,.0015459
47.8366700,.0015211
47.8570900,.0014316
47.8775100,.0014714
47.8979300,.0017052
47.9183400,.0018098
47.9387600,.0018821
47.9591800,.0020192
47.9796000,.0020270
48.0000100,.0013558
48.0204300,.0011049
48.0408500,.0010158
48.0612600,.0007003
48.0816800,.0005465
48.1021000,.0007483
48.1225200,.0012413
48.1429300,.0013140
48.1633500,.0015807
48.1837700,.0015565
48.2041900,.0019528
48.2246000,.0016376
48.2450200,.0016781
48.2654300,.0013953
48.2858500,.0018239
48.3062700,.0013147
48.3266900,.0015493
48.3471000,.0016547
48.3675200,.0017924
48.3879400,.0015098
48.4083600,.0019710
48.4287700,.0019149
48.4491900,.0015677
48.4696100,.0016086
48.4900200,.0016494
48.5104400,.0013669
48.5308600,.0014401
48.5512800,.0018691
48.5716900,.0021042
48.5921100,.0021452
48.6125300,.0022187
48.6329500,.0021305
48.6533600,.0020746
48.6737800,.0022451
48.6941900,.0021892
48.7146100,.0021010
48.7350300,.0022069
48.7554500,.0019894
48.7758600,.0014810
48.7962800,.0016840
48.8167000,.0019517
48.8371200,.0019284
48.8575300,.0019698
48.8779500,.0023345
48.8983700,.0021819
48.9187900,.0019322
48.9392000,.0018120
48.9596200,.0017564
48.9800400,.0014099
49.0004500,.0013544
49.0208700,.0016547
49.0412900,.0018903
49.0617100,.0020289
49.0821200,.0022322
49.1025400,.0022414
49.1229600,.0021537
49.1433800,.0018719
49.1637900,.0019782
49.1842100,.0020199
49.2046200,.0022880
49.2250400,.0022651
49.2454600,.0022745
49.2658800,.0019929
49.2862900,.0019376
49.3067100,.0018824
49.3271300,.0020211
49.3475500,.0020306
49.3679600,.0022341
49.3883800,.0025993
49.4088000,.0024794
49.4292100,.0020039
49.4496300,.0021428
49.4700500,.0021200
49.4904700,.0016122
49.5108800,.0016218
49.5313000,.0018253
49.5517200,.0020936
49.5721400,.0021678
49.5925500,.0024038
49.6129700,.0023811
49.6333900,.0022937
49.6538000,.0021093
49.6742200,.0020219
49.6946400,.0019669
49.7150600,.0020735
49.7354700,.0023095
49.7558900,.0025132
49.7763100,.0026521
49.7967300,.0028882
49.8171400,.0029625
49.8375600,.0028428
49.8579800,.0025291
49.8783900,.0023771
49.8988100,.0016107
49.9192300,.0016527
49.9396400,.0019211
49.9600600,.0019805
49.9804800,.0031369
50.0009000,.0022635
