2.000 671.000 1.000
2.020 706.000 1.000
2.040 702.000 1.000
2.060 733.000 1.000
2.080 758.000 1.000
2.100 739.000 1.000
2.120 725.000 1.000
2.140 752.000 1.000
2.160 751.000 1.000
2.180 722.000 1.000
2.200 782.000 1.000
2.220 759.000 1.000
2.240 779.000 1.000
2.260 771.000 1.000
2.280 787.000 1.000
2.300 776.000 1.000
2.320 803.000 1.000
2.340 777.000 1.000
2.360 803.000 1.000
2.380 816.000 1.000
2.400 827.000 1.000
2.420 831.000 1.000
2.440 815.000 1.000
2.460 771.000 1.000
2.480 821.000 1.000
2.500 809.000 1.000
2.520 775.000 1.000
2.540 787.000 1.000
2.560 783.000 1.000
2.580 841.000 1.000
2.600 834.000 1.000
2.620 831.000 1.000
2.640 869.000 1.000
2.660 848.000 1.000
2.680 869.000 1.000
2.700 835.000 1.000
2.720 878.000 1.000
2.740 878.000 1.000
2.760 829.000 1.000
2.780 864.000 1.000
2.800 873.000 1.000
2.820 847.000 1.000
2.840 865.000 1.000
2.860 881.000 1.000
2.880 882.000 1.000
2.900 867.000 1.000
2.920 861.000 1.000
2.940 857.000 1.000
2.960 833.000 1.000
2.980 862.000 1.000
3.000 877.000 1.000
3.020 901.000 1.000
3.040 898.000 1.000
3.060 888.000 1.000
3.080 875.000 1.000
3.100 883.000 1.000
3.120 846.000 1.000
3.140 821.000 1.000
3.160 864.000 1.000
3.180 873.000 1.000
3.200 891.000 1.000
3.220 915.000 1.000
3.240 897.000 1.000
3.260 880.000 1.000
3.280 921.000 1.000
3.300 909.000 1.000
3.320 923.000 1.000
3.340 895.000 1.000
3.360 946.000 1.000
3.380 891.000 1.000
3.400 890.000 1.000
3.420 870.000 1.000
3.440 878.000 1.000
3.460 844.000 1.000
3.480 889.000 1.000
3.500 860.000 1.000
3.520 902.000 1.000
3.540 937.000 1.000
3.560 887.000 1.000
3.580 921.000 1.000
3.600 907.000 1.000
3.620 900.000 1.000
3.640 964.000 1.000
3.660 970.000 1.000
3.680 906.000 1.000
3.700 956.000 1.000
3.720 899.000 1.000
3.740 928.000 1.000
3.760 933.000 1.000
3.780 929.000 1.000
3.800 917.000 1.000
3.820 950.000 1.000
3.840 902.000 1.000
3.860 892.000 1.000
3.880 910.000 1.000
3.900 972.000 1.000
3.920 923.000 1.000
3.940 994.000 1.000
3.960 971.000 1.000
3.980 975.000 1.000
4.000 969.000 1.000
4.020 957.000 1.000
4.040 945.000 1.000
4.060 921.000 1.000
4.080 909.000 1.000
4.100 947.000 1.000
4.120 937.000 1.000
4.140 998.000 1.000
4.160 1007.000 1.000
4.180 1003.000 1.000
4.200 993.000 1.000
4.220 1010.000 1.000
4.240 1014.000 1.000
4.260 1000.000 1.000
4.280 1005.000 1.000
4.300 956.000 1.000
4.320 933.000 1.000
4.340 974.000 1.000
4.360 1011.000 1.000
4.380 982.000 1.000
4.400 965.000 1.000
4.420 947.000 1.000
4.440 994.000 1.000
4.460 1013.000 1.000
4.480 1029.000 1.000
4.500 1022.000 1.000
4.520 1029.000 1.000
4.540 1064.000 1.000
4.560 1030.000 1.000
4.580 993.000 1.000
4.600 946.000 1.000
4.620 1012.000 1.000
4.640 1041.000 1.000
4.660 1026.000 1.000
4.680 995.000 1.000
4.700 1005.000 1.000
4.720 1047.000 1.000
4.740 1070.000 1.000
4.760 1065.000 1.000
4.780 1094.000 1.000
4.800 1069.000 1.000
4.820 1084.000 1.000
4.840 1041.000 1.000
4.860 1057.000 1.000
4.880 1059.000 1.000
4.900 1063.000 1.000
4.920 1082.000 1.000
4.940 1050.000 1.000
4.960 1059.000 1.000
4.980 1085.000 1.000
5.000 1094.000 1.000
5.020 1124.000 1.000
5.040 1067.000 1.000
5.060 1061.000 1.000
5.080 1053.000 1.000
5.100 1145.000 1.000
5.120 1120.000 1.000
5.140 1086.000 1.000
5.160 1094.000 1.000
5.180 1133.000 1.000
5.200 1102.000 1.000
5.220 1105.000 1.000
5.240 1076.000 1.000
5.260 1092.000 1.000
5.280 1118.000 1.000
5.300 1100.000 1.000
5.320 1127.000 1.000
5.340 1127.000 1.000
5.360 1164.000 1.000
5.380 1133.000 1.000
5.400 1133.000 1.000
5.420 1153.000 1.000
5.440 1160.000 1.000
5.460 1167.000 1.000
5.480 1160.000 1.000
5.500 1179.000 1.000
5.520 1211.000 1.000
5.540 1201.000 1.000
5.560 1153.000 1.000
5.580 1188.000 1.000
5.600 1165.000 1.000
5.620 1160.000 1.000
5.640 1161.000 1.000
5.660 1152.000 1.000
5.680 1207.000 1.000
5.700 1224.000 1.000
5.720 1222.000 1.000
5.740 1221.000 1.000
5.760 1242.000 1.000
5.780 1194.000 1.000
5.800 1200.000 1.000
5.820 1175.000 1.000
5.840 1201.000 1.000
5.860 1227.000 1.000
5.880 1175.000 1.000
5.900 1210.000 1.000
5.920 1239.000 1.000
5.940 1244.000 1.000
5.960 1256.000 1.000
5.980 1229.000 1.000
6.000 1279.000 1.000
6.020 1338.000 1.000
6.040 1282.000 1.000
6.060 1331.000 1.000
6.080 1266.000 1.000
6.100 1270.000 1.000
6.120 1295.000 1.000
6.140 1320.000 1.000
6.160 1277.000 1.000
6.180 1269.000 1.000
6.200 1324.000 1.000
6.220 1288.000 1.000
6.240 1272.000 1.000
6.260 1310.000 1.000
6.280 1280.000 1.000
6.300 1305.000 1.000
6.320 1377.000 1.000
6.340 1377.000 1.000
6.360 1342.000 1.000
6.380 1388.000 1.000
6.400 1394.000 1.000
6.420 1418.000 1.000
6.440 1409.000 1.000
6.460 1400.000 1.000
6.480 1406.000 1.000
6.500 1382.000 1.000
6.520 1390.000 1.000
6.540 1414.000 1.000
6.560 1398.000 1.000
6.580 1435.000 1.000
6.600 1453.000 1.000
6.620 1461.000 1.000
6.640 1461.000 1.000
6.660 1482.000 1.000
6.680 1437.000 1.000
6.700 1404.000 1.000
6.720 1406.000 1.000
6.740 1433.000 1.000
6.760 1395.000 1.000
6.780 1424.000 1.000
6.800 1450.000 1.000
6.820 1467.000 1.000
6.840 1560.000 1.000
6.860 1573.000 1.000
6.880 1694.000 1.000
6.900 1803.000 1.000
6.920 1914.000 1.000
6.940 2069.000 1.000
6.960 2027.000 1.000
6.980 1948.000 1.000
7.000 1781.000 1.000
7.020 1641.000 1.000
7.040 1562.000 1.000
7.060 1587.000 1.000
7.080 1607.000 1.000
7.100 1682.000 1.000
7.120 1669.000 1.000
7.140 1703.000 1.000
7.160 1735.000 1.000
7.180 1724.000 1.000
7.200 1785.000 1.000
7.220 1842.000 1.000
7.240 1883.000 1.000
7.260 1906.000 1.000
7.280 2035.000 1.000
7.300 2166.000 1.000
7.320 2205.000 1.000
7.340 2352.000 1.000
7.360 2485.000 1.000
7.380 2649.000 1.000
7.400 2907.000 1.000
7.420 3026.000 1.000
7.440 3032.000 1.000
7.460 3029.000 1.000
7.480 3198.000 1.000
7.500 3226.000 1.000
7.520 3531.000 1.000
7.540 4504.000 1.000
7.560 6343.000 1.000
7.580 9341.000 1.000
7.600 13525.000 1.000
7.620 17930.000 1.000
7.640 21851.000 1.000
7.660 26939.000 1.000
7.680 37222.000 1.000
7.700 52918.000 1.000
7.720 68474.000 1.000
7.740 79019.000 1.000
7.760 74929.000 1.000
7.780 53728.000 1.000
7.800 26915.000 1.000
7.820 10645.000 1.000
7.840 6341.000 1.000
7.860 6707.000 1.000
7.880 8838.000 1.000
7.900 11375.000 1.000
7.920 13719.000 1.000
7.940 16285.000 1.000
7.960 18667.000 1.000
7.980 22026.000 1.000
8.000 26598.000 1.000
8.020 27951.000 1.000
8.040 21029.000 1.000
8.060 11797.000 1.000
8.080 6355.000 1.000
8.100 4137.000 1.000
8.120 3243.000 1.000
8.140 2820.000 1.000
8.160 2720.000 1.000
8.180 2733.000 1.000
8.200 2722.000 1.000
8.220 2596.000 1.000
8.240 2573.000 1.000
8.260 2519.000 1.000
8.280 2567.000 1.000
8.300 2456.000 1.000
8.320 2421.000 1.000
8.340 2361.000 1.000
8.360 2381.000 1.000
8.380 2323.000 1.000
8.400 2345.000 1.000
8.420 2340.000 1.000
8.440 2389.000 1.000
8.460 2418.000 1.000
8.480 2396.000 1.000
8.500 2356.000 1.000
8.520 2180.000 1.000
8.540 2151.000 1.000
8.560 2203.000 1.000
8.580 2274.000 1.000
8.600 2251.000 1.000
8.620 2341.000 1.000
8.640 2476.000 1.000
8.660 2470.000 1.000
8.680 2432.000 1.000
8.700 2453.000 1.000
8.720 2529.000 1.000
8.740 2486.000 1.000
8.760 2367.000 1.000
8.780 2240.000 1.000
8.800 2192.000 1.000
8.820 2156.000 1.000
8.840 2189.000 1.000
8.860 2267.000 1.000
8.880 2289.000 1.000
8.900 2234.000 1.000
8.920 2203.000 1.000
8.940 2163.000 1.000
8.960 2149.000 1.000
8.980 2173.000 1.000
9.000 2346.000 1.000
9.020 2474.000 1.000
9.040 2634.000 1.000
9.060 2810.000 1.000
9.080 3033.000 1.000
9.100 3207.000 1.000
9.120 3316.000 1.000
9.140 3451.000 1.000
9.160 3697.000 1.000
9.180 3642.000 1.000
9.200 3405.000 1.000
9.220 3184.000 1.000
9.240 3195.000 1.000
9.260 3523.000 1.000
9.280 3872.000 1.000
9.300 4242.000 1.000
9.320 4396.000 1.000
9.340 4073.000 1.000
9.360 3720.000 1.000
9.380 3368.000 1.000
9.400 3214.000 1.000
9.420 3010.000 1.000
9.440 2940.000 1.000
9.460 3036.000 1.000
9.480 3209.000 1.000
9.500 3327.000 1.000
9.520 3395.000 1.000
9.540 3133.000 1.000
9.560 2833.000 1.000
9.580 2686.000 1.000
9.600 2674.000 1.000
9.620 2832.000 1.000
9.640 3276.000 1.000
9.660 3952.000 1.000
9.680 4766.000 1.000
9.700 5976.000 1.000
9.720 7691.000 1.000
9.740 10163.000 1.000
9.760 14217.000 1.000
9.780 21913.000 1.000
9.800 31943.000 1.000
9.820 36643.000 1.000
9.840 29471.000 1.000
9.860 15863.000 1.000
9.880 6351.000 1.000
9.900 3079.000 1.000
9.920 2432.000 1.000
9.940 2301.000 1.000
9.960 2287.000 1.000
9.980 2230.000 1.000
10.000 2212.000 1.000
10.020 2235.000 1.000
10.040 2270.000 1.000
10.060 2258.000 1.000
10.080 2280.000 1.000
10.100 2370.000 1.000
10.120 2330.000 1.000
10.140 2450.000 1.000
10.160 2594.000 1.000
10.180 2688.000 1.000
10.200 2770.000 1.000
10.220 2715.000 1.000
10.240 2797.000 1.000
10.260 2835.000 1.000
10.280 2592.000 1.000
10.300 2508.000 1.000
10.320 2374.000 1.000
10.340 2145.000 1.000
10.360 2110.000 1.000
10.380 2096.000 1.000
10.400 2139.000 1.000
10.420 2228.000 1.000
10.440 2258.000 1.000
10.460 2107.000 1.000
10.480 2064.000 1.000
10.500 1923.000 1.000
10.520 1889.000 1.000
10.540 1912.000 1.000
10.560 1910.000 1.000
10.580 1888.000 1.000
10.600 1912.000 1.000
10.620 1902.000 1.000
10.640 1934.000 1.000
10.660 1971.000 1.000
10.680 1960.000 1.000
10.700 1975.000 1.000
10.720 1922.000 1.000
10.740 1948.000 1.000
10.760 1851.000 1.000
10.780 1838.000 1.000
10.800 1877.000 1.000
10.820 1825.000 1.000
10.840 1884.000 1.000
10.860 1858.000 1.000
10.880 1862.000 1.000
10.900 1850.000 1.000
10.920 1852.000 1.000
10.940 1853.000 1.000
10.960 1893.000 1.000
10.980 1898.000 1.000
11.000 1774.000 1.000
11.020 1867.000 1.000
11.040 1861.000 1.000
11.060 1922.000 1.000
11.080 1905.000 1.000
11.100 1886.000 1.000
11.120 1869.000 1.000
11.140 1860.000 1.000
11.160 1968.000 1.000
11.180 1906.000 1.000
11.200 1924.000 1.000
11.220 1946.000 1.000
11.240 1928.000 1.000
11.260 1959.000 1.000
11.280 1950.000 1.000
11.300 2000.000 1.000
11.320 2160.000 1.000
11.340 2350.000 1.000
11.360 2520.000 1.000
11.380 2886.000 1.000
11.400 3314.000 1.000
11.420 3816.000 1.000
11.440 3981.000 1.000
11.460 3739.000 1.000
11.480 3219.000 1.000
11.500 2764.000 1.000
11.520 2518.000 1.000
11.540 2541.000 1.000
11.560 2574.000 1.000
11.580 2468.000 1.000
11.600 2363.000 1.000
11.620 2207.000 1.000
11.640 1978.000 1.000
11.660 1968.000 1.000
11.680 1855.000 1.000
11.700 1824.000 1.000
11.720 1804.000 1.000
11.740 1769.000 1.000
11.760 1786.000 1.000
11.780 1777.000 1.000
11.800 1786.000 1.000
11.820 1770.000 1.000
11.840 1762.000 1.000
11.860 1799.000 1.000
11.880 1837.000 1.000
11.900 1802.000 1.000
11.920 1838.000 1.000
11.940 1877.000 1.000
11.960 1818.000 1.000
11.980 1866.000 1.000
12.000 1820.000 1.000
12.020 1885.000 1.000
12.040 1886.000 1.000
12.060 1922.000 1.000
12.080 1930.000 1.000
12.100 1926.000 1.000
12.120 1903.000 1.000
12.140 1981.000 1.000
12.160 1950.000 1.000
12.180 1960.000 1.000
12.200 2012.000 1.000
12.220 2099.000 1.000
12.240 2190.000 1.000
12.260 2326.000 1.000
12.280 2444.000 1.000
12.300 2527.000 1.000
12.320 2634.000 1.000
12.340 2689.000 1.000
12.360 2747.000 1.000
12.380 3075.000 1.000
12.400 3705.000 1.000
12.420 4875.000 1.000
12.440 6057.000 1.000
12.460 6589.000 1.000
12.480 6040.000 1.000
12.500 5322.000 1.000
12.520 4989.000 1.000
12.540 5205.000 1.000
12.560 5538.000 1.000
12.580 5600.000 1.000
12.600 5899.000 1.000
12.620 6631.000 1.000
12.640 7915.000 1.000
12.660 8955.000 1.000
12.680 9159.000 1.000
12.700 7974.000 1.000
12.720 6166.000 1.000
12.740 4505.000 1.000
12.760 3331.000 1.000
12.780 2602.000 1.000
12.800 2097.000 1.000
12.820 1923.000 1.000
12.840 1824.000 1.000
12.860 1824.000 1.000
12.880 1872.000 1.000
12.900 1926.000 1.000
12.920 1805.000 1.000
12.940 1809.000 1.000
12.960 1816.000 1.000
12.980 1806.000 1.000
13.000 1771.000 1.000
13.020 1806.000 1.000
13.040 1867.000 1.000
13.060 1850.000 1.000
13.080 1799.000 1.000
13.100 1836.000 1.000
13.120 1837.000 1.000
13.140 1843.000 1.000
13.160 1779.000 1.000
13.180 1823.000 1.000
13.200 1811.000 1.000
13.220 1801.000 1.000
13.240 1839.000 1.000
13.260 1747.000 1.000
13.280 1781.000 1.000
13.300 1840.000 1.000
13.320 1846.000 1.000
13.340 1787.000 1.000
13.360 1774.000 1.000
13.380 1787.000 1.000
13.400 1753.000 1.000
13.420 1817.000 1.000
13.440 1784.000 1.000
13.460 1827.000 1.000
13.480 1718.000 1.000
13.500 1752.000 1.000
13.520 1754.000 1.000
13.540 1786.000 1.000
13.560 1811.000 1.000
13.580 1798.000 1.000
13.600 1781.000 1.000
13.620 1744.000 1.000
13.640 1759.000 1.000
13.660 1785.000 1.000
13.680 1775.000 1.000
13.700 1751.000 1.000
13.720 1728.000 1.000
13.740 1660.000 1.000
13.760 1721.000 1.000
13.780 1735.000 1.000
13.800 1792.000 1.000
13.820 1786.000 1.000
13.840 1805.000 1.000
13.860 1747.000 1.000
13.880 1757.000 1.000
13.900 1771.000 1.000
13.920 1750.000 1.000
13.940 1754.000 1.000
13.960 1759.000 1.000
13.980 1780.000 1.000
14.000 1733.000 1.000
14.020 1737.000 1.000
14.040 1782.000 1.000
14.060 1758.000 1.000
14.080 1807.000 1.000
14.100 1771.000 1.000
14.120 1752.000 1.000
14.140 1732.000 1.000
14.160 1763.000 1.000
14.180 1782.000 1.000
14.200 1842.000 1.000
14.220 1964.000 1.000
14.240 2016.000 1.000
14.260 1984.000 1.000
14.280 1885.000 1.000
14.300 1833.000 1.000
14.320 1791.000 1.000
14.340 1837.000 1.000
14.360 1847.000 1.000
14.380 1781.000 1.000
14.400 1807.000 1.000
14.420 1801.000 1.000
14.440 1863.000 1.000
14.460 1900.000 1.000
14.480 1926.000 1.000
14.500 1975.000 1.000
14.520 1872.000 1.000
14.540 1814.000 1.000
14.560 1733.000 1.000
14.580 1731.000 1.000
14.600 1737.000 1.000
14.620 1804.000 1.000
14.640 1783.000 1.000
14.660 1821.000 1.000
14.680 1840.000 1.000
14.700 1780.000 1.000
14.720 1707.000 1.000
14.740 1703.000 1.000
14.760 1805.000 1.000
14.780 1811.000 1.000
14.800 1773.000 1.000
14.820 1780.000 1.000
14.840 1769.000 1.000
14.860 1781.000 1.000
14.880 1947.000 1.000
14.900 1908.000 1.000
14.920 1913.000 1.000
14.940 2047.000 1.000
14.960 2128.000 1.000
14.980 2175.000 1.000
15.000 2262.000 1.000
15.020 2270.000 1.000
15.040 2182.000 1.000
15.060 2049.000 1.000
15.080 2000.000 1.000
15.100 1951.000 1.000
15.120 1968.000 1.000
15.140 2001.000 1.000
15.160 1951.000 1.000
15.180 1875.000 1.000
15.200 1990.000 1.000
15.220 2058.000 1.000
15.240 2032.000 1.000
15.260 2165.000 1.000
15.280 2199.000 1.000
15.300 2200.000 1.000
15.320 2167.000 1.000
15.340 2129.000 1.000
15.360 2317.000 1.000
15.380 2426.000 1.000
15.400 2515.000 1.000
15.420 2578.000 1.000
15.440 2687.000 1.000
15.460 2736.000 1.000
15.480 2856.000 1.000
15.500 2868.000 1.000
15.520 2835.000 1.000
15.540 2884.000 1.000
15.560 2691.000 1.000
15.580 2636.000 1.000
15.600 2490.000 1.000
15.620 2452.000 1.000
15.640 2396.000 1.000
15.660 2463.000 1.000
15.680 2576.000 1.000
15.700 2865.000 1.000
15.720 3872.000 1.000
15.740 6831.000 1.000
15.760 13485.000 1.000
15.780 22211.000 1.000
15.800 30120.000 1.000
15.820 33149.000 1.000
15.840 29230.000 1.000
15.860 21973.000 1.000
15.880 16217.000 1.000
15.900 12173.000 1.000
15.920 10173.000 1.000
15.940 9176.000 1.000
15.960 9108.000 1.000
15.980 10397.000 1.000
16.000 12541.000 1.000
16.020 14400.000 1.000
16.040 15892.000 1.000
16.060 17572.000 1.000
16.080 16887.000 1.000
16.100 13494.000 1.000
16.120 9145.000 1.000
16.140 5810.000 1.000
16.160 3569.000 1.000
16.180 2775.000 1.000
16.200 2539.000 1.000
16.220 2518.000 1.000
16.240 2493.000 1.000
16.260 2549.000 1.000
16.280 2539.000 1.000
16.300 2494.000 1.000
16.320 2545.000 1.000
16.340 2597.000 1.000
16.360 2558.000 1.000
16.380 2614.000 1.000
16.400 2615.000 1.000
16.420 2558.000 1.000
16.440 2566.000 1.000
16.460 2669.000 1.000
16.480 2682.000 1.000
16.500 2862.000 1.000
16.520 2978.000 1.000
16.540 3145.000 1.000
16.560 3276.000 1.000
16.580 3792.000 1.000
16.600 4334.000 1.000
16.620 5004.000 1.000
16.640 5528.000 1.000
16.660 5890.000 1.000
16.680 6009.000 1.000
16.700 5613.000 1.000
16.720 5170.000 1.000
16.740 4881.000 1.000
16.760 5133.000 1.000
16.780 5720.000 1.000
16.800 6673.000 1.000
16.820 7254.000 1.000
16.840 6860.000 1.000
16.860 5701.000 1.000
16.880 4181.000 1.000
16.900 3162.000 1.000
16.920 2506.000 1.000
16.940 2214.000 1.000
16.960 2159.000 1.000
16.980 2144.000 1.000
17.000 2088.000 1.000
17.020 2079.000 1.000
17.040 2166.000 1.000
17.060 2143.000 1.000
17.080 2107.000 1.000
17.100 2093.000 1.000
17.120 2140.000 1.000
17.140 2129.000 1.000
17.160 2054.000 1.000
17.180 2080.000 1.000
17.200 2111.000 1.000
17.220 2062.000 1.000
17.240 2174.000 1.000
17.260 2199.000 1.000
17.280 2239.000 1.000
17.300 2246.000 1.000
17.320 2214.000 1.000
17.340 2202.000 1.000
17.360 2300.000 1.000
17.380 2218.000 1.000
17.400 2254.000 1.000
17.420 2282.000 1.000
17.440 2328.000 1.000
17.460 2283.000 1.000
17.480 2349.000 1.000
17.500 2507.000 1.000
17.520 2536.000 1.000
17.540 2530.000 1.000
17.560 2558.000 1.000
17.580 2422.000 1.000
17.600 2379.000 1.000
17.620 2353.000 1.000
17.640 2383.000 1.000
17.660 2427.000 1.000
17.680 2361.000 1.000
17.700 2373.000 1.000
17.720 2467.000 1.000
17.740 2460.000 1.000
17.760 2431.000 1.000
17.780 2402.000 1.000
17.800 2362.000 1.000
17.820 2464.000 1.000
17.840 2624.000 1.000
17.860 2950.000 1.000
17.880 3297.000 1.000
17.900 3605.000 1.000
17.920 4320.000 1.000
17.940 5575.000 1.000
17.960 7791.000 1.000
17.980 10314.000 1.000
18.000 11934.000 1.000
18.020 12812.000 1.000
18.040 13649.000 1.000
18.060 13963.000 1.000
18.080 13273.000 1.000
18.100 12123.000 1.000
18.120 11044.000 1.000
18.140 9542.000 1.000
18.160 7747.000 1.000
18.180 6542.000 1.000
18.200 6124.000 1.000
18.220 6466.000 1.000
18.240 7319.000 1.000
18.260 7951.000 1.000
18.280 7784.000 1.000
18.300 6993.000 1.000
18.320 5764.000 1.000
18.340 4740.000 1.000
18.360 3666.000 1.000
18.380 3215.000 1.000
18.400 3059.000 1.000
18.420 2932.000 1.000
18.440 3065.000 1.000
18.460 3243.000 1.000
18.480 3408.000 1.000
18.500 3685.000 1.000
18.520 4038.000 1.000
18.540 4305.000 1.000
18.560 4404.000 1.000
18.580 4461.000 1.000
18.600 4569.000 1.000
18.620 4522.000 1.000
18.640 4310.000 1.000
18.660 3811.000 1.000
18.680 3439.000 1.000
18.700 3008.000 1.000
18.720 2757.000 1.000
18.740 2662.000 1.000
18.760 2793.000 1.000
18.780 3002.000 1.000
18.800 3097.000 1.000
18.820 3182.000 1.000
18.840 3209.000 1.000
18.860 3085.000 1.000
18.880 2845.000 1.000
18.900 2754.000 1.000
18.920 2736.000 1.000
18.940 2830.000 1.000
18.960 2946.000 1.000
18.980 3115.000 1.000
19.000 3058.000 1.000
19.020 2992.000 1.000
19.040 3075.000 1.000
19.060 3032.000 1.000
19.080 3011.000 1.000
19.100 3040.000 1.000
19.120 2884.000 1.000
19.140 2846.000 1.000
19.160 2686.000 1.000
19.180 2550.000 1.000
19.200 2415.000 1.000
19.220 2349.000 1.000
19.240 2361.000 1.000
19.260 2354.000 1.000
19.280 2398.000 1.000
19.300 2449.000 1.000
19.320 2449.000 1.000
19.340 2431.000 1.000
19.360 2407.000 1.000
19.380 2542.000 1.000
19.400 2669.000 1.000
19.420 2972.000 1.000
19.440 3382.000 1.000
19.460 4500.000 1.000
19.480 6154.000 1.000
19.500 7930.000 1.000
19.520 9235.000 1.000
19.540 10497.000 1.000
19.560 11684.000 1.000
19.580 12997.000 1.000
19.600 14378.000 1.000
19.620 17018.000 1.000
19.640 18703.000 1.000
19.660 17757.000 1.000
19.680 14577.000 1.000
19.700 10472.000 1.000
19.720 7417.000 1.000
19.740 4597.000 1.000
19.760 3075.000 1.000
19.780 2603.000 1.000
19.800 2447.000 1.000
19.820 2442.000 1.000
19.840 2413.000 1.000
19.860 2422.000 1.000
19.880 2395.000 1.000
19.900 2375.000 1.000
19.920 2440.000 1.000
19.940 2437.000 1.000
19.960 2508.000 1.000
19.980 2460.000 1.000
20.000 2450.000 1.000
20.020 2346.000 1.000
20.040 2323.000 1.000
20.060 2335.000 1.000
20.080 2293.000 1.000
20.100 2281.000 1.000
20.120 2271.000 1.000
20.140 2141.000 1.000
20.160 2200.000 1.000
20.180 2100.000 1.000
20.200 2112.000 1.000
20.220 2106.000 1.000
20.240 2151.000 1.000
20.260 2117.000 1.000
20.280 2134.000 1.000
20.300 2182.000 1.000
20.320 2131.000 1.000
20.340 2123.000 1.000
20.360 2073.000 1.000
20.380 2139.000 1.000
20.400 2173.000 1.000
20.420 2179.000 1.000
20.440 2192.000 1.000
20.460 2209.000 1.000
20.480 2181.000 1.000
20.500 2237.000 1.000
20.520 2279.000 1.000
20.540 2203.000 1.000
20.560 2211.000 1.000
20.580 2210.000 1.000
20.600 2283.000 1.000
20.620 2276.000 1.000
20.640 2231.000 1.000
20.660 2200.000 1.000
20.680 2327.000 1.000
20.700 2241.000 1.000
20.720 2205.000 1.000
20.740 2169.000 1.000
20.760 2178.000 1.000
20.780 2160.000 1.000
20.800 2175.000 1.000
20.820 2168.000 1.000
20.840 2085.000 1.000
20.860 2115.000 1.000
20.880 2142.000 1.000
20.900 2148.000 1.000
20.920 2060.000 1.000
20.940 2140.000 1.000
20.960 2184.000 1.000
20.980 2247.000 1.000
21.000 2252.000 1.000
21.020 2322.000 1.000
21.040 2468.000 1.000
21.060 2559.000 1.000
21.080 2642.000 1.000
21.100 2692.000 1.000
21.120 2702.000 1.000
21.140 2621.000 1.000
21.160 2449.000 1.000
21.180 2421.000 1.000
21.200 2142.000 1.000
21.220 2163.000 1.000
21.240 2165.000 1.000
21.260 2145.000 1.000
21.280 2134.000 1.000
21.300 2139.000 1.000
21.320 2170.000 1.000
21.340 2147.000 1.000
21.360 2090.000 1.000
21.380 2145.000 1.000
21.400 2203.000 1.000
21.420 2208.000 1.000
21.440 2295.000 1.000
21.460 2246.000 1.000
21.480 2303.000 1.000
21.500 2330.000 1.000
21.520 2355.000 1.000
21.540 2413.000 1.000
21.560 2390.000 1.000
21.580 2590.000 1.000
21.600 2789.000 1.000
21.620 2920.000 1.000
21.640 3222.000 1.000
21.660 3353.000 1.000
21.680 3505.000 1.000
21.700 3815.000 1.000
21.720 3984.000 1.000
21.740 3913.000 1.000
21.760 3671.000 1.000
21.780 3215.000 1.000
21.800 2913.000 1.000
21.820 2583.000 1.000
21.840 2406.000 1.000
21.860 2617.000 1.000
21.880 3011.000 1.000
21.900 3338.000 1.000
21.920 3418.000 1.000
21.940 3417.000 1.000
21.960 3231.000 1.000
21.980 2971.000 1.000
22.000 2751.000 1.000
22.020 2506.000 1.000
22.040 2401.000 1.000
22.060 2368.000 1.000
22.080 2352.000 1.000
22.100 2478.000 1.000
22.120 2709.000 1.000
22.140 3049.000 1.000
22.160 3437.000 1.000
22.180 3866.000 1.000
22.200 4241.000 1.000
22.220 4402.000 1.000
22.240 4360.000 1.000
22.260 4067.000 1.000
22.280 3697.000 1.000
22.300 3542.000 1.000
22.320 3466.000 1.000
22.340 3300.000 1.000
22.360 3207.000 1.000
22.380 3159.000 1.000
22.400 2959.000 1.000
22.420 2792.000 1.000
22.440 2698.000 1.000
22.460 2515.000 1.000
22.480 2534.000 1.000
22.500 2572.000 1.000
22.520 2645.000 1.000
22.540 2843.000 1.000
22.560 3056.000 1.000
22.580 3243.000 1.000
22.600 3508.000 1.000
22.620 3952.000 1.000
22.640 4480.000 1.000
22.660 5070.000 1.000
22.680 5470.000 1.000
22.700 6052.000 1.000
22.720 6669.000 1.000
22.740 6916.000 1.000
22.760 6804.000 1.000
22.780 6819.000 1.000
22.800 7314.000 1.000
22.820 8438.000 1.000
22.840 9965.000 1.000
22.860 11681.000 1.000
22.880 13207.000 1.000
22.900 14429.000 1.000
22.920 14183.000 1.000
22.940 12462.000 1.000
22.960 10006.000 1.000
22.980 7680.000 1.000
23.000 5684.000 1.000
23.020 4121.000 1.000
23.040 3089.000 1.000
23.060 2709.000 1.000
23.080 2572.000 1.000
23.100 2487.000 1.000
23.120 2638.000 1.000
23.140 2687.000 1.000
23.160 2983.000 1.000
23.180 3292.000 1.000
23.200 3571.000 1.000
23.220 3882.000 1.000
23.240 4233.000 1.000
23.260 4835.000 1.000
23.280 5501.000 1.000
23.300 6012.000 1.000
23.320 5918.000 1.000
23.340 5429.000 1.000
23.360 4755.000 1.000
23.380 4340.000 1.000
23.400 3810.000 1.000
23.420 3470.000 1.000
23.440 3124.000 1.000
23.460 2902.000 1.000
23.480 2631.000 1.000
23.500 2473.000 1.000
23.520 2345.000 1.000
23.540 2189.000 1.000
23.560 2124.000 1.000
23.580 2164.000 1.000
23.600 2186.000 1.000
23.620 2173.000 1.000
23.640 2108.000 1.000
23.660 2113.000 1.000
23.680 2118.000 1.000
23.700 2085.000 1.000
23.720 2048.000 1.000
23.740 2066.000 1.000
23.760 2035.000 1.000
23.780 2111.000 1.000
23.800 2078.000 1.000
23.820 2066.000 1.000
23.840 2131.000 1.000
23.860 2089.000 1.000
23.880 2173.000 1.000
23.900 2182.000 1.000
23.920 2256.000 1.000
23.940 2352.000 1.000
23.960 2371.000 1.000
23.980 2401.000 1.000
24.000 2408.000 1.000
24.020 2321.000 1.000
24.040 2286.000 1.000
24.060 2176.000 1.000
24.080 2126.000 1.000
24.100 2151.000 1.000
24.120 2199.000 1.000
24.140 2226.000 1.000
24.160 2269.000 1.000
24.180 2192.000 1.000
24.200 2219.000 1.000
24.220 2218.000 1.000
24.240 2139.000 1.000
24.260 2115.000 1.000
24.280 2143.000 1.000
24.300 2126.000 1.000
24.320 2080.000 1.000
24.340 2137.000 1.000
24.360 2127.000 1.000
24.380 2156.000 1.000
24.400 2269.000 1.000
24.420 2221.000 1.000
24.440 2215.000 1.000
24.460 2271.000 1.000
24.480 2288.000 1.000
24.500 2360.000 1.000
24.520 2464.000 1.000
24.540 2584.000 1.000
24.560 2654.000 1.000
24.580 2878.000 1.000
24.600 3042.000 1.000
24.620 3306.000 1.000
24.640 3576.000 1.000
24.660 3785.000 1.000
24.680 3663.000 1.000
24.700 3510.000 1.000
24.720 3250.000 1.000
24.740 3039.000 1.000
24.760 2708.000 1.000
24.780 2518.000 1.000
24.800 2502.000 1.000
24.820 2522.000 1.000
24.840 2525.000 1.000
24.860 2540.000 1.000
24.880 2592.000 1.000
24.900 2671.000 1.000
24.920 2756.000 1.000
24.940 2801.000 1.000
24.960 2801.000 1.000
24.980 2801.000 1.000
25.000 2716.000 1.000
25.020 2631.000 1.000
25.040 2704.000 1.000
25.060 2813.000 1.000
25.080 2943.000 1.000
25.100 3116.000 1.000
25.120 3504.000 1.000
25.140 3963.000 1.000
25.160 4353.000 1.000
25.180 4720.000 1.000
25.200 4720.000 1.000
25.220 4561.000 1.000
25.240 4427.000 1.000
25.260 4477.000 1.000
25.280 4389.000 1.000
25.300 4320.000 1.000
25.320 4190.000 1.000
25.340 4191.000 1.000
25.360 4070.000 1.000
25.380 4062.000 1.000
25.400 3912.000 1.000
25.420 3862.000 1.000
25.440 3884.000 1.000
25.460 3762.000 1.000
25.480 3577.000 1.000
25.500 3490.000 1.000
25.520 3368.000 1.000
25.540 3162.000 1.000
25.560 3091.000 1.000
25.580 2973.000 1.000
25.600 2974.000 1.000
25.620 3004.000 1.000
25.640 2985.000 1.000
25.660 3005.000 1.000
25.680 3109.000 1.000
25.700 3168.000 1.000
25.720 3416.000 1.000
25.740 3758.000 1.000
25.760 4151.000 1.000
25.780 4573.000 1.000
25.800 5088.000 1.000
25.820 5575.000 1.000
25.840 6061.000 1.000
25.860 6488.000 1.000
25.880 6601.000 1.000
25.900 6290.000 1.000
25.920 5596.000 1.000
25.940 5144.000 1.000
25.960 5006.000 1.000
25.980 4846.000 1.000
26.000 5033.000 1.000
26.020 5539.000 1.000
26.040 6046.000 1.000
26.060 6312.000 1.000
26.080 6177.000 1.000
26.100 5774.000 1.000
26.120 5378.000 1.000
26.140 4982.000 1.000
26.160 4526.000 1.000
26.180 4119.000 1.000
26.200 3683.000 1.000
26.220 3410.000 1.000
26.240 3317.000 1.000
26.260 3104.000 1.000
26.280 2894.000 1.000
26.300 2871.000 1.000
26.320 2854.000 1.000
26.340 2957.000 1.000
26.360 3312.000 1.000
26.380 3992.000 1.000
26.400 5125.000 1.000
26.420 6420.000 1.000
26.440 8152.000 1.000
26.460 10492.000 1.000
26.480 12747.000 1.000
26.500 14299.000 1.000
26.520 14178.000 1.000
26.540 12718.000 1.000
26.560 10951.000 1.000
26.580 9291.000 1.000
26.600 7849.000 1.000
26.620 6698.000 1.000
26.640 6012.000 1.000
26.660 5687.000 1.000
26.680 5341.000 1.000
26.700 4913.000 1.000
26.720 4349.000 1.000
26.740 3996.000 1.000
26.760 3582.000 1.000
26.780 3093.000 1.000
26.800 2752.000 1.000
26.820 2692.000 1.000
26.840 2753.000 1.000
26.860 2756.000 1.000
26.880 2810.000 1.000
26.900 2859.000 1.000
26.920 2874.000 1.000
26.940 2733.000 1.000
26.960 2563.000 1.000
26.980 2519.000 1.000
27.000 2490.000 1.000
27.020 2367.000 1.000
27.040 2277.000 1.000
27.060 2185.000 1.000
27.080 2110.000 1.000
27.100 2084.000 1.000
27.120 2078.000 1.000
27.140 2032.000 1.000
27.160 2031.000 1.000
27.180 2058.000 1.000
27.200 2079.000 1.000
27.220 2064.000 1.000
27.240 2077.000 1.000
27.260 2044.000 1.000
27.280 2045.000 1.000
27.300 2071.000 1.000
27.320 2049.000 1.000
27.340 2087.000 1.000
27.360 2156.000 1.000
27.380 2135.000 1.000
27.400 2139.000 1.000
27.420 2195.000 1.000
27.440 2202.000 1.000
27.460 2181.000 1.000
27.480 2215.000 1.000
27.500 2246.000 1.000
27.520 2297.000 1.000
27.540 2337.000 1.000
27.560 2395.000 1.000
27.580 2444.000 1.000
27.600 2402.000 1.000
27.620 2304.000 1.000
27.640 2260.000 1.000
27.660 2206.000 1.000
27.680 2174.000 1.000
27.700 2100.000 1.000
27.720 2064.000 1.000
27.740 2053.000 1.000
27.760 2118.000 1.000
27.780 2157.000 1.000
27.800 2186.000 1.000
27.820 2249.000 1.000
27.840 2371.000 1.000
27.860 2430.000 1.000
27.880 2409.000 1.000
27.900 2469.000 1.000
27.920 2558.000 1.000
27.940 2476.000 1.000
27.960 2395.000 1.000
27.980 2352.000 1.000
28.000 2321.000 1.000
28.020 2277.000 1.000
28.040 2198.000 1.000
28.060 2147.000 1.000
28.080 2125.000 1.000
28.100 2087.000 1.000
28.120 2089.000 1.000
28.140 2148.000 1.000
28.160 2179.000 1.000
28.180 2194.000 1.000
28.200 2268.000 1.000
28.220 2308.000 1.000
28.240 2281.000 1.000
28.260 2235.000 1.000
28.280 2174.000 1.000
28.300 2091.000 1.000
28.320 2080.000 1.000
28.340 2034.000 1.000
28.360 1988.000 1.000
28.380 1988.000 1.000
28.400 2031.000 1.000
28.420 2055.000 1.000
28.440 2047.000 1.000
28.460 2066.000 1.000
28.480 2091.000 1.000
28.500 2128.000 1.000
28.520 2150.000 1.000
28.540 2096.000 1.000
28.560 2084.000 1.000
28.580 2131.000 1.000
28.600 2161.000 1.000
28.620 2124.000 1.000
28.640 2234.000 1.000
28.660 2426.000 1.000
28.680 2473.000 1.000
28.700 2458.000 1.000
28.720 2397.000 1.000
28.740 2305.000 1.000
28.760 2240.000 1.000
28.780 2111.000 1.000
28.800 2059.000 1.000
28.820 2063.000 1.000
28.840 2025.000 1.000
28.860 2009.000 1.000
28.880 2095.000 1.000
28.900 2216.000 1.000
28.920 2351.000 1.000
28.940 2587.000 1.000
28.960 2861.000 1.000
28.980 2979.000 1.000
29.000 2958.000 1.000
29.020 2813.000 1.000
29.040 2637.000 1.000
29.060 2525.000 1.000
29.080 2360.000 1.000
29.100 2179.000 1.000
29.120 2076.000 1.000
29.140 2032.000 1.000
29.160 2056.000 1.000
29.180 2050.000 1.000
29.200 2058.000 1.000
29.220 2176.000 1.000
29.240 2312.000 1.000
29.260 2428.000 1.000
29.280 2590.000 1.000
29.300 2786.000 1.000
29.320 3257.000 1.000
29.340 3815.000 1.000
29.360 4272.000 1.000
29.380 4652.000 1.000
29.400 5041.000 1.000
29.420 5373.000 1.000
29.440 5358.000 1.000
29.460 4935.000 1.000
29.480 4572.000 1.000
29.500 4349.000 1.000
29.520 3954.000 1.000
29.540 3606.000 1.000
29.560 3494.000 1.000
29.580 3514.000 1.000
29.600 3498.000 1.000
29.620 3514.000 1.000
29.640 3701.000 1.000
29.660 3899.000 1.000
29.680 3891.000 1.000
29.700 3751.000 1.000
29.720 3559.000 1.000
29.740 3335.000 1.000
29.760 3159.000 1.000
29.780 3008.000 1.000
29.800 2896.000 1.000
29.820 2830.000 1.000
29.840 2704.000 1.000
29.860 2663.000 1.000
29.880 2720.000 1.000
29.900 2721.000 1.000
29.920 2849.000 1.000
29.940 3048.000 1.000
29.960 3157.000 1.000
29.980 3133.000 1.000
30.000 2945.000 1.000
30.020 2815.000 1.000
30.040 2781.000 1.000
30.060 2734.000 1.000
30.080 2739.000 1.000
30.100 2681.000 1.000
30.120 2609.000 1.000
30.140 2667.000 1.000
30.160 2706.000 1.000
30.180 2645.000 1.000
30.200 2514.000 1.000
30.220 2320.000 1.000
30.240 2189.000 1.000
30.260 2129.000 1.000
30.280 2050.000 1.000
30.300 1966.000 1.000
30.320 1917.000 1.000
30.340 1915.000 1.000
30.360 1898.000 1.000
30.380 1853.000 1.000
30.400 1889.000 1.000
30.420 1911.000 1.000
30.440 1897.000 1.000
30.460 1963.000 1.000
30.480 1999.000 1.000
30.500 2026.000 1.000
30.520 2032.000 1.000
30.540 2011.000 1.000
30.560 2031.000 1.000
30.580 2099.000 1.000
30.600 2268.000 1.000
30.620 2540.000 1.000
30.640 2835.000 1.000
30.660 3094.000 1.000
30.680 3209.000 1.000
30.700 3219.000 1.000
30.720 3235.000 1.000
30.740 3193.000 1.000
30.760 3074.000 1.000
30.780 2934.000 1.000
30.800 2841.000 1.000
30.820 2750.000 1.000
30.840 2646.000 1.000
30.860 2512.000 1.000
30.880 2352.000 1.000
30.900 2273.000 1.000
30.920 2275.000 1.000
30.940 2270.000 1.000
30.960 2250.000 1.000
30.980 2242.000 1.000
31.000 2193.000 1.000
31.020 2198.000 1.000
31.040 2250.000 1.000
31.060 2266.000 1.000
31.080 2257.000 1.000
31.100 2221.000 1.000
31.120 2220.000 1.000
31.140 2242.000 1.000
31.160 2156.000 1.000
31.180 2048.000 1.000
31.200 2036.000 1.000
31.220 2038.000 1.000
31.240 2031.000 1.000
31.260 1981.000 1.000
31.280 1964.000 1.000
31.300 1933.000 1.000
31.320 1880.000 1.000
31.340 1929.000 1.000
31.360 1965.000 1.000
31.380 1988.000 1.000
31.400 2013.000 1.000
31.420 2006.000 1.000
31.440 1974.000 1.000
31.460 1959.000 1.000
31.480 1948.000 1.000
31.500 1920.000 1.000
31.520 1909.000 1.000
31.540 1845.000 1.000
31.560 1813.000 1.000
31.580 1841.000 1.000
31.600 1854.000 1.000
31.620 1849.000 1.000
31.640 1827.000 1.000
31.660 1826.000 1.000
31.680 1847.000 1.000
31.700 1849.000 1.000
31.720 1866.000 1.000
31.740 1924.000 1.000
31.760 1929.000 1.000
31.780 1934.000 1.000
31.800 2019.000 1.000
31.820 2052.000 1.000
31.840 2053.000 1.000
31.860 2136.000 1.000
31.880 2177.000 1.000
31.900 2136.000 1.000
31.920 2144.000 1.000
31.940 2187.000 1.000
31.960 2143.000 1.000
31.980 2086.000 1.000
32.000 2070.000 1.000
32.020 2102.000 1.000
32.040 2171.000 1.000
32.060 2180.000 1.000
32.080 2217.000 1.000
32.100 2279.000 1.000
32.120 2356.000 1.000
32.140 2519.000 1.000
32.160 2809.000 1.000
32.180 3343.000 1.000
32.200 4012.000 1.000
32.220 4444.000 1.000
32.240 4568.000 1.000
32.260 4486.000 1.000
32.280 4436.000 1.000
32.300 4346.000 1.000
32.320 3996.000 1.000
32.340 3566.000 1.000
32.360 3280.000 1.000
32.380 3222.000 1.000
32.400 3261.000 1.000
32.420 3256.000 1.000
32.440 3279.000 1.000
32.460 3297.000 1.000
32.480 3280.000 1.000
32.500 3159.000 1.000
32.520 2895.000 1.000
32.540 2725.000 1.000
32.560 2673.000 1.000
32.580 2646.000 1.000
32.600 2557.000 1.000
32.620 2522.000 1.000
32.640 2607.000 1.000
32.660 2725.000 1.000
32.680 2989.000 1.000
32.700 3298.000 1.000
32.720 3534.000 1.000
32.740 3759.000 1.000
32.760 3830.000 1.000
32.780 3608.000 1.000
32.800 3258.000 1.000
32.820 3122.000 1.000
32.840 3059.000 1.000
32.860 2805.000 1.000
32.880 2630.000 1.000
32.900 2763.000 1.000
32.920 3031.000 1.000
32.940 3120.000 1.000
32.960 2917.000 1.000
32.980 2770.000 1.000
33.000 2799.000 1.000
33.020 2875.000 1.000
33.040 2828.000 1.000
33.060 2680.000 1.000
33.080 2574.000 1.000
33.100 2591.000 1.000
33.120 2643.000 1.000
33.140 2655.000 1.000
33.160 2571.000 1.000
33.180 2451.000 1.000
33.200 2368.000 1.000
33.220 2273.000 1.000
33.240 2245.000 1.000
33.260 2268.000 1.000
33.280 2320.000 1.000
33.300 2387.000 1.000
33.320 2504.000 1.000
33.340 2523.000 1.000
33.360 2493.000 1.000
33.380 2519.000 1.000
33.400 2498.000 1.000
33.420 2491.000 1.000
33.440 2507.000 1.000
33.460 2711.000 1.000
33.480 3015.000 1.000
33.500 3284.000 1.000
33.520 3486.000 1.000
33.540 3570.000 1.000
33.560 3475.000 1.000
33.580 3222.000 1.000
33.600 3041.000 1.000
33.620 3138.000 1.000
33.640 3702.000 1.000
33.660 4563.000 1.000
33.680 4915.000 1.000
33.700 4328.000 1.000
33.720 3566.000 1.000
33.740 3544.000 1.000
33.760 3864.000 1.000
33.780 3867.000 1.000
33.800 3613.000 1.000
33.820 3602.000 1.000
33.840 3772.000 1.000
33.860 3941.000 1.000
33.880 4076.000 1.000
33.900 4063.000 1.000
33.920 3886.000 1.000
33.940 3883.000 1.000
33.960 4034.000 1.000
33.980 4095.000 1.000
34.000 4207.000 1.000
34.020 4272.000 1.000
34.040 4135.000 1.000
34.060 3724.000 1.000
34.080 3312.000 1.000
34.100 3264.000 1.000
34.120 3196.000 1.000
34.140 2983.000 1.000
34.160 2681.000 1.000
34.180 2576.000 1.000
34.200 2661.000 1.000
34.220 2715.000 1.000
34.240 2695.000 1.000
34.260 2754.000 1.000
34.280 2860.000 1.000
34.300 2852.000 1.000
34.320 2852.000 1.000
34.340 2849.000 1.000
34.360 2724.000 1.000
34.380 2599.000 1.000
34.400 2464.000 1.000
34.420 2279.000 1.000
34.440 2172.000 1.000
34.460 2104.000 1.000
34.480 1974.000 1.000
34.500 1899.000 1.000
34.520 1868.000 1.000
34.540 1868.000 1.000
34.560 1778.000 1.000
34.580 1788.000 1.000
34.600 1838.000 1.000
34.620 1864.000 1.000
34.640 1829.000 1.000
34.660 1831.000 1.000
34.680 1890.000 1.000
34.700 1952.000 1.000
34.720 1974.000 1.000
34.740 2000.000 1.000
34.760 2032.000 1.000
34.780 2015.000 1.000
34.800 2055.000 1.000
34.820 2100.000 1.000
34.840 2099.000 1.000
34.860 2121.000 1.000
34.880 2126.000 1.000
34.900 2166.000 1.000
34.920 2226.000 1.000
34.940 2314.000 1.000
34.960 2452.000 1.000
34.980 2544.000 1.000
35.000 2601.000 1.000
35.020 2805.000 1.000
35.040 3043.000 1.000
35.060 3154.000 1.000
35.080 3189.000 1.000
35.100 3192.000 1.000
35.120 3092.000 1.000
35.140 3004.000 1.000
35.160 2918.000 1.000
35.180 2876.000 1.000
35.200 2844.000 1.000
35.220 2741.000 1.000
35.240 2732.000 1.000
35.260 2726.000 1.000
35.280 2728.000 1.000
35.300 2804.000 1.000
35.320 2815.000 1.000
35.340 2821.000 1.000
35.360 2819.000 1.000
35.380 2821.000 1.000
35.400 2902.000 1.000
35.420 2837.000 1.000
35.440 2619.000 1.000
35.460 2485.000 1.000
35.480 2331.000 1.000
35.500 2419.000 1.000
35.520 2420.000 1.000
35.540 2279.000 1.000
35.560 2186.000 1.000
35.580 2201.000 1.000
35.600 2244.000 1.000
35.620 2279.000 1.000
35.640 2294.000 1.000
35.660 2360.000 1.000
35.680 2465.000 1.000
35.700 2682.000 1.000
35.720 2869.000 1.000
35.740 3039.000 1.000
35.760 3310.000 1.000
35.780 3486.000 1.000
35.800 3696.000 1.000
35.820 3952.000 1.000
35.840 4092.000 1.000
35.860 4121.000 1.000
35.880 4051.000 1.000
35.900 3776.000 1.000
35.920 3489.000 1.000
35.940 3163.000 1.000
35.960 3001.000 1.000
35.980 2808.000 1.000
36.000 2581.000 1.000
36.020 2301.000 1.000
36.040 2089.000 1.000
36.060 2000.000 1.000
36.080 1992.000 1.000
36.100 1950.000 1.000
36.120 1937.000 1.000
36.140 1920.000 1.000
36.160 1889.000 1.000
36.180 1938.000 1.000
36.200 1988.000 1.000
36.220 2073.000 1.000
36.240 2119.000 1.000
36.260 2162.000 1.000
36.280 2233.000 1.000
36.300 2143.000 1.000
36.320 2092.000 1.000
36.340 2060.000 1.000
36.360 2078.000 1.000
36.380 2130.000 1.000
36.400 2068.000 1.000
36.420 2042.000 1.000
36.440 1984.000 1.000
36.460 1899.000 1.000
36.480 1913.000 1.000
36.500 1962.000 1.000
36.520 1980.000 1.000
36.540 2160.000 1.000
36.560 2319.000 1.000
36.580 2309.000 1.000
36.600 2396.000 1.000
36.620 2475.000 1.000
36.640 2404.000 1.000
36.660 2333.000 1.000
36.680 2202.000 1.000
36.700 2161.000 1.000
36.720 2165.000 1.000
36.740 2177.000 1.000
36.760 2308.000 1.000
36.780 2319.000 1.000
36.800 2285.000 1.000
36.820 2284.000 1.000
36.840 2245.000 1.000
36.860 2194.000 1.000
36.880 2183.000 1.000
36.900 2230.000 1.000
36.920 2158.000 1.000
36.940 2214.000 1.000
36.960 2288.000 1.000
36.980 2338.000 1.000
37.000 2366.000 1.000
37.020 2449.000 1.000
37.040 2504.000 1.000
37.060 2485.000 1.000
37.080 2402.000 1.000
37.100 2338.000 1.000
37.120 2262.000 1.000
37.140 2130.000 1.000
37.160 2142.000 1.000
37.180 2101.000 1.000
37.200 2015.000 1.000
37.220 1980.000 1.000
37.240 1964.000 1.000
37.260 1935.000 1.000
37.280 1910.000 1.000
37.300 1859.000 1.000
37.320 1825.000 1.000
37.340 1850.000 1.000
37.360 1825.000 1.000
37.380 1837.000 1.000
37.400 1875.000 1.000
37.420 1802.000 1.000
37.440 1830.000 1.000
37.460 1833.000 1.000
37.480 1853.000 1.000
37.500 1915.000 1.000
37.520 1884.000 1.000
37.540 1899.000 1.000
37.560 1853.000 1.000
37.580 1887.000 1.000
37.600 1907.000 1.000
37.620 1874.000 1.000
37.640 1919.000 1.000
37.660 1986.000 1.000
37.680 1990.000 1.000
37.700 2018.000 1.000
37.720 2056.000 1.000
37.740 2115.000 1.000
37.760 2181.000 1.000
37.780 2263.000 1.000
37.800 2343.000 1.000
37.820 2422.000 1.000
37.840 2570.000 1.000
37.860 2725.000 1.000
37.880 2857.000 1.000
37.900 3106.000 1.000
37.920 3547.000 1.000
37.940 4014.000 1.000
37.960 4294.000 1.000
37.980 4370.000 1.000
38.000 4412.000 1.000
38.020 4443.000 1.000
38.040 4377.000 1.000
38.060 4462.000 1.000
38.080 4533.000 1.000
38.100 4266.000 1.000
38.120 3929.000 1.000
38.140 3732.000 1.000
38.160 3449.000 1.000
38.180 3206.000 1.000
38.200 2899.000 1.000
38.220 2717.000 1.000
38.240 2520.000 1.000
38.260 2370.000 1.000
38.280 2225.000 1.000
38.300 2167.000 1.000
38.320 2106.000 1.000
38.340 1979.000 1.000
38.360 1942.000 1.000
38.380 1971.000 1.000
38.400 1952.000 1.000
38.420 2005.000 1.000
38.440 1973.000 1.000
38.460 1913.000 1.000
38.480 1932.000 1.000
38.500 2021.000 1.000
38.520 2063.000 1.000
38.540 2164.000 1.000
38.560 2200.000 1.000
38.580 2264.000 1.000
38.600 2314.000 1.000
38.620 2348.000 1.000
38.640 2389.000 1.000
38.660 2388.000 1.000
38.680 2291.000 1.000
38.700 2256.000 1.000
38.720 2280.000 1.000
38.740 2327.000 1.000
38.760 2295.000 1.000
38.780 2318.000 1.000
38.800 2331.000 1.000
38.820 2351.000 1.000
38.840 2366.000 1.000
38.860 2576.000 1.000
38.880 2824.000 1.000
38.900 2961.000 1.000
38.920 3255.000 1.000
38.940 3436.000 1.000
38.960 3497.000 1.000
38.980 3491.000 1.000
39.000 3589.000 1.000
39.020 3772.000 1.000
39.040 3889.000 1.000
39.060 3898.000 1.000
39.080 3966.000 1.000
39.100 3713.000 1.000
39.120 3356.000 1.000
39.140 3141.000 1.000
39.160 3042.000 1.000
39.180 2946.000 1.000
39.200 2891.000 1.000
39.220 2746.000 1.000
39.240 2618.000 1.000
39.260 2579.000 1.000
39.280 2466.000 1.000
39.300 2347.000 1.000
39.320 2332.000 1.000
39.340 2354.000 1.000
39.360 2375.000 1.000
39.380 2329.000 1.000
39.400 2263.000 1.000
39.420 2283.000 1.000
39.440 2325.000 1.000
39.460 2301.000 1.000
39.480 2311.000 1.000
39.500 2409.000 1.000
39.520 2489.000 1.000
39.540 2611.000 1.000
39.560 2736.000 1.000
39.580 2874.000 1.000
39.600 2967.000 1.000
39.620 3207.000 1.000
39.640 3309.000 1.000
39.660 3490.000 1.000
39.680 3562.000 1.000
39.700 3666.000 1.000
39.720 3737.000 1.000
39.740 3610.000 1.000
39.760 3651.000 1.000
39.780 3846.000 1.000
39.800 4138.000 1.000
39.820 4325.000 1.000
39.840 4483.000 1.000
39.860 4724.000 1.000
39.880 5092.000 1.000
39.900 5516.000 1.000
39.920 5474.000 1.000
39.940 5308.000 1.000
39.960 4970.000 1.000
39.980 4977.000 1.000
40.000 4998.000 1.000
40.020 4866.000 1.000
40.040 4539.000 1.000
40.060 4081.000 1.000
40.080 3776.000 1.000
40.100 3716.000 1.000
40.120 3534.000 1.000
40.140 3272.000 1.000
40.160 3166.000 1.000
40.180 2935.000 1.000
40.200 2830.000 1.000
40.220 2829.000 1.000
40.240 2908.000 1.000
40.260 2919.000 1.000
40.280 2997.000 1.000
40.300 3238.000 1.000
40.320 3383.000 1.000
40.340 3565.000 1.000
40.360 3746.000 1.000
40.380 3920.000 1.000
40.400 4151.000 1.000
40.420 4447.000 1.000
40.440 4722.000 1.000
40.460 4935.000 1.000
40.480 4896.000 1.000
40.500 4990.000 1.000
40.520 4911.000 1.000
40.540 5124.000 1.000
40.560 5281.000 1.000
40.580 5185.000 1.000
40.600 5834.000 1.000
40.620 7596.000 1.000
40.640 12022.000 1.000
40.660 19263.000 1.000
40.680 26635.000 1.000
40.700 30587.000 1.000
40.720 31298.000 1.000
40.740 31179.000 1.000
40.760 31565.000 1.000
40.780 30307.000 1.000
40.800 26869.000 1.000
40.820 24071.000 1.000
40.840 23807.000 1.000
40.860 25556.000 1.000
40.880 25878.000 1.000
40.900 23549.000 1.000
40.920 20628.000 1.000
40.940 17752.000 1.000
40.960 15270.000 1.000
40.980 13846.000 1.000
41.000 13375.000 1.000
41.020 12720.000 1.000
41.040 11376.000 1.000
41.060 9390.000 1.000
41.080 7952.000 1.000
41.100 7552.000 1.000
41.120 8166.000 1.000
41.140 9102.000 1.000
41.160 10440.000 1.000
41.180 11346.000 1.000
41.200 11170.000 1.000
41.220 9698.000 1.000
41.240 8158.000 1.000
41.260 8334.000 1.000
41.280 10879.000 1.000
41.300 15223.000 1.000
41.320 18159.000 1.000
41.340 16796.000 1.000
41.360 13044.000 1.000
41.380 10574.000 1.000
41.400 9760.000 1.000
41.420 10182.000 1.000
41.440 10163.000 1.000
41.460 8998.000 1.000
41.480 7826.000 1.000
41.500 7096.000 1.000
41.520 6675.000 1.000
41.540 6330.000 1.000
41.560 5807.000 1.000
41.580 5394.000 1.000
41.600 5553.000 1.000
41.620 6124.000 1.000
41.640 6523.000 1.000
41.660 6230.000 1.000
41.680 5515.000 1.000
41.700 4946.000 1.000
41.720 4801.000 1.000
41.740 4766.000 1.000
41.760 4794.000 1.000
41.780 4655.000 1.000
41.800 4627.000 1.000
41.820 4649.000 1.000
41.840 4808.000 1.000
41.860 5099.000 1.000
41.880 5561.000 1.000
41.900 6593.000 1.000
41.920 7660.000 1.000
41.940 9042.000 1.000
41.960 10154.000 1.000
41.980 9906.000 1.000
42.000 8063.000 1.000
42.020 6852.000 1.000
42.040 6799.000 1.000
42.060 7431.000 1.000
42.080 7871.000 1.000
42.100 8005.000 1.000
42.120 9106.000 1.000
42.140 12176.000 1.000
42.160 17872.000 1.000
42.180 27212.000 1.000
42.200 38149.000 1.000
42.220 47334.000 1.000
42.240 48651.000 1.000
42.260 40102.000 1.000
42.280 29858.000 1.000
42.300 25038.000 1.000
42.320 25721.000 1.000
42.340 26599.000 1.000
42.360 22954.000 1.000
42.380 16011.000 1.000
42.400 9811.000 1.000
42.420 6279.000 1.000
42.440 4798.000 1.000
42.460 4201.000 1.000
42.480 4043.000 1.000
42.500 3955.000 1.000
42.520 3827.000 1.000
42.540 3708.000 1.000
42.560 3506.000 1.000
42.580 3300.000 1.000
42.600 3329.000 1.000
42.620 3270.000 1.000
42.640 3096.000 1.000
42.660 3097.000 1.000
42.680 3041.000 1.000
42.700 3128.000 1.000
42.720 3182.000 1.000
42.740 3305.000 1.000
42.760 3635.000 1.000
42.780 3994.000 1.000
42.800 4499.000 1.000
42.820 5039.000 1.000
42.840 5292.000 1.000
42.860 5241.000 1.000
42.880 4953.000 1.000
42.900 4602.000 1.000
42.920 4467.000 1.000
42.940 4239.000 1.000
42.960 3979.000 1.000
42.980 3753.000 1.000
43.000 3468.000 1.000
43.020 3292.000 1.000
43.040 2962.000 1.000
43.060 2751.000 1.000
43.080 2701.000 1.000
43.100 2818.000 1.000
43.120 3014.000 1.000
43.140 3213.000 1.000
43.160 3235.000 1.000
43.180 3124.000 1.000
43.200 2989.000 1.000
43.220 2971.000 1.000
43.240 3000.000 1.000
43.260 3011.000 1.000
43.280 2810.000 1.000
43.300 2621.000 1.000
43.320 2631.000 1.000
43.340 2627.000 1.000
43.360 2497.000 1.000
43.380 2389.000 1.000
43.400 2421.000 1.000
43.420 2384.000 1.000
43.440 2531.000 1.000
43.460 2632.000 1.000
43.480 2810.000 1.000
43.500 3229.000 1.000
43.520 3411.000 1.000
43.540 3418.000 1.000
43.560 3395.000 1.000
43.580 3454.000 1.000
43.600 3798.000 1.000
43.620 3951.000 1.000
43.640 3793.000 1.000
43.660 3384.000 1.000
43.680 3125.000 1.000
43.700 2882.000 1.000
43.720 2877.000 1.000
43.740 2830.000 1.000
43.760 2678.000 1.000
43.780 2609.000 1.000
43.800 2574.000 1.000
43.820 2637.000 1.000
43.840 2784.000 1.000
43.860 2978.000 1.000
43.880 3205.000 1.000
43.900 3410.000 1.000
43.920 3592.000 1.000
43.940 3731.000 1.000
43.960 3836.000 1.000
43.980 3784.000 1.000
44.000 3862.000 1.000
44.020 3794.000 1.000
44.040 3814.000 1.000
44.060 3608.000 1.000
44.080 3391.000 1.000
44.100 3104.000 1.000
44.120 2912.000 1.000
44.140 2692.000 1.000
44.160 2570.000 1.000
44.180 2496.000 1.000
44.200 2506.000 1.000
44.220 2385.000 1.000
44.240 2356.000 1.000
44.260 2329.000 1.000
44.280 2457.000 1.000
44.300 2580.000 1.000
44.320 2740.000 1.000
44.340 2741.000 1.000
44.360 2806.000 1.000
44.380 2819.000 1.000
44.400 2907.000 1.000
44.420 3017.000 1.000
44.440 3143.000 1.000
44.460 3183.000 1.000
44.480 3190.000 1.000
44.500 3101.000 1.000
44.520 3015.000 1.000
44.540 2917.000 1.000
44.560 2800.000 1.000
44.580 2820.000 1.000
44.600 2738.000 1.000
44.620 2744.000 1.000
44.640 2637.000 1.000
44.660 2450.000 1.000
44.680 2401.000 1.000
44.700 2317.000 1.000
44.720 2348.000 1.000
44.740 2336.000 1.000
44.760 2290.000 1.000
44.780 2197.000 1.000
44.800 2139.000 1.000
44.820 2090.000 1.000
44.840 2088.000 1.000
44.860 2124.000 1.000
44.880 2154.000 1.000
44.900 2112.000 1.000
44.920 2063.000 1.000
44.940 1992.000 1.000
44.960 2013.000 1.000
44.980 1998.000 1.000
45.000 2047.000 1.000
45.020 2031.000 1.000
45.040 2014.000 1.000
45.060 2005.000 1.000
45.080 2097.000 1.000
45.100 2138.000 1.000
45.120 2187.000 1.000
45.140 2266.000 1.000
45.160 2187.000 1.000
45.180 2132.000 1.000
45.200 2149.000 1.000
45.220 2190.000 1.000
45.240 2266.000 1.000
45.260 2191.000 1.000
45.280 2152.000 1.000
45.300 2155.000 1.000
45.320 2196.000 1.000
45.340 2196.000 1.000
45.360 2272.000 1.000
45.380 2507.000 1.000
45.400 2570.000 1.000
45.420 2622.000 1.000
45.440 2562.000 1.000
45.460 2595.000 1.000
45.480 2583.000 1.000
45.500 2701.000 1.000
45.520 2562.000 1.000
45.540 2382.000 1.000
45.560 2295.000 1.000
45.580 2371.000 1.000
45.600 2456.000 1.000
45.620 2565.000 1.000
45.640 2323.000 1.000
45.660 2121.000 1.000
45.680 2022.000 1.000
45.700 1966.000 1.000
45.720 1975.000 1.000
45.740 1985.000 1.000
45.760 1960.000 1.000
45.780 1911.000 1.000
45.800 1967.000 1.000
45.820 1940.000 1.000
45.840 1998.000 1.000
45.860 1951.000 1.000
45.880 1968.000 1.000
45.900 2024.000 1.000
45.920 1970.000 1.000
45.940 2009.000 1.000
45.960 2122.000 1.000
45.980 2258.000 1.000
46.000 2342.000 1.000
46.020 2437.000 1.000
46.040 2452.000 1.000
46.060 2589.000 1.000
46.080 2633.000 1.000
46.100 2708.000 1.000
46.120 2859.000 1.000
46.140 2862.000 1.000
46.160 2779.000 1.000
46.180 2719.000 1.000
46.200 2733.000 1.000
46.220 2815.000 1.000
46.240 2800.000 1.000
46.260 2699.000 1.000
46.280 2732.000 1.000
46.300 2688.000 1.000
46.320 2624.000 1.000
46.340 2484.000 1.000
46.360 2465.000 1.000
46.380 2338.000 1.000
46.400 2286.000 1.000
46.420 2295.000 1.000
46.440 2279.000 1.000
46.460 2297.000 1.000
46.480 2227.000 1.000
46.500 2161.000 1.000
46.520 2117.000 1.000
46.540 2082.000 1.000
46.560 2013.000 1.000
46.580 1978.000 1.000
46.600 1994.000 1.000
46.620 2009.000 1.000
46.640 1942.000 1.000
46.660 1958.000 1.000
46.680 1946.000 1.000
46.700 1968.000 1.000
46.720 1986.000 1.000
46.740 2000.000 1.000
46.760 2033.000 1.000
46.780 1951.000 1.000
46.800 1964.000 1.000
46.820 1925.000 1.000
46.840 1892.000 1.000
46.860 1879.000 1.000
46.880 1850.000 1.000
46.900 1869.000 1.000
46.920 1896.000 1.000
46.940 1836.000 1.000
46.960 1834.000 1.000
46.980 1815.000 1.000
47.000 1809.000 1.000
47.020 1777.000 1.000
47.040 1797.000 1.000
47.060 1817.000 1.000
47.080 1766.000 1.000
47.100 1770.000 1.000
47.120 1754.000 1.000
47.140 1808.000 1.000
47.160 1811.000 1.000
47.180 1892.000 1.000
47.200 1884.000 1.000
47.220 1896.000 1.000
47.240 1877.000 1.000
47.260 1845.000 1.000
47.280 1897.000 1.000
47.300 1851.000 1.000
47.320 1882.000 1.000
47.340 1892.000 1.000
47.360 1798.000 1.000
47.380 1887.000 1.000
47.400 1879.000 1.000
47.420 1828.000 1.000
47.440 1821.000 1.000
47.460 1815.000 1.000
47.480 1847.000 1.000
47.500 1764.000 1.000
47.520 1818.000 1.000
47.540 1833.000 1.000
47.560 1870.000 1.000
47.580 1878.000 1.000
47.600 1982.000 1.000
47.620 1978.000 1.000
47.640 2050.000 1.000
47.660 1974.000 1.000
47.680 1921.000 1.000
47.700 2033.000 1.000
47.720 2105.000 1.000
47.740 2104.000 1.000
47.760 2198.000 1.000
47.780 2303.000 1.000
47.800 2443.000 1.000
47.820 2488.000 1.000
47.840 2438.000 1.000
47.860 2304.000 1.000
47.880 2219.000 1.000
47.900 2143.000 1.000
47.920 2133.000 1.000
47.940 2108.000 1.000
47.960 2058.000 1.000
47.980 1946.000 1.000
48.000 1926.000 1.000
48.020 1818.000 1.000
48.040 1880.000 1.000
48.060 1805.000 1.000
48.080 1818.000 1.000
48.100 1801.000 1.000
48.120 1790.000 1.000
48.140 1816.000 1.000
48.160 1881.000 1.000
48.180 1910.000 1.000
48.200 1935.000 1.000
48.220 1834.000 1.000
48.240 1793.000 1.000
48.260 1883.000 1.000
48.280 1884.000 1.000
48.300 1847.000 1.000
48.320 1852.000 1.000
48.340 1836.000 1.000
48.360 1839.000 1.000
48.380 1821.000 1.000
48.400 1891.000 1.000
48.420 1936.000 1.000
48.440 1945.000 1.000
48.460 2021.000 1.000
48.480 2111.000 1.000
48.500 2209.000 1.000
48.520 2221.000 1.000
48.540 2332.000 1.000
48.560 2355.000 1.000
48.580 2459.000 1.000
48.600 2459.000 1.000
48.620 2412.000 1.000
48.640 2307.000 1.000
48.660 2293.000 1.000
48.680 2277.000 1.000
48.700 2191.000 1.000
48.720 2214.000 1.000
48.740 2289.000 1.000
48.760 2213.000 1.000
48.780 2112.000 1.000
48.800 2089.000 1.000
48.820 2114.000 1.000
48.840 2121.000 1.000
48.860 2102.000 1.000
48.880 2119.000 1.000
48.900 2161.000 1.000
48.920 2115.000 1.000
48.940 2098.000 1.000
48.960 2191.000 1.000
48.980 2295.000 1.000
49.000 2315.000 1.000
49.020 2311.000 1.000
49.040 2422.000 1.000
49.060 2363.000 1.000
49.080 2409.000 1.000
49.100 2467.000 1.000
49.120 2533.000 1.000
49.140 2496.000 1.000
49.160 2592.000 1.000
49.180 2614.000 1.000
49.200 2764.000 1.000
49.220 2751.000 1.000
49.240 2718.000 1.000
49.260 2805.000 1.000
49.280 2914.000 1.000
49.300 3339.000 1.000
49.320 4486.000 1.000
49.340 6955.000 1.000
49.360 11284.000 1.000
49.380 16647.000 1.000
49.400 20733.000 1.000
49.420 21978.000 1.000
49.440 21471.000 1.000
49.460 19521.000 1.000
49.480 16870.000 1.000
49.500 14849.000 1.000
49.520 14277.000 1.000
49.540 14902.000 1.000
49.560 15691.000 1.000
49.580 15631.000 1.000
49.600 14200.000 1.000
49.620 11573.000 1.000
49.640 8327.000 1.000
49.660 6146.000 1.000
49.680 5236.000 1.000
49.700 5440.000 1.000
49.720 5749.000 1.000
49.740 5913.000 1.000
49.760 5537.000 1.000
49.780 4912.000 1.000
49.800 4147.000 1.000
49.820 3765.000 1.000
49.840 3627.000 1.000
49.860 3584.000 1.000
49.880 3427.000 1.000
49.900 3254.000 1.000
49.920 2909.000 1.000
49.940 2820.000 1.000
49.960 2889.000 1.000
49.980 3131.000 1.000
50.000 3131.000 1.000
